35.469,2159.0
35.47,2228.0
35.471,2176.0
35.472,2056.0
35.473,1919.0
35.474,1852.0
35.475,1931.0
35.476,2044.0
35.477,2161.0
35.478,2206.0
35.479,2170.0
35.48,2020.0
35.481,1901.0
35.482,1871.0
35.483,1955.0
35.484,2084.0
35.485,2206.0
35.486,2221.0
35.487,2161.0
35.488,2005.0
35.489,1893.0
35.49,1890.0
35.491,1969.0
35.492,2115.0
35.493,2228.0
35.494,2229.0
35.495,2146.0
35.496,1983.0
35.497,1901.0
35.498,1908.0
35.499,2001.0
35.5,2135.0
35.501,2231.0
35.502,2223.0
35.503,2136.0
35.504,1967.0
35.505,1905.0
35.506,1914.0
35.507,2032.0
35.508,2187.0
35.509,2267.0
35.51,2234.0
35.511,2103.0
35.512,1959.0
35.513,1916.0
35.514,1929.0
35.515,2062.0
35.516,2205.0
35.517,2260.0
35.518,2219.0
35.519,2077.0
35.52,1952.0
35.521,1946.0
35.522,1975.0
35.523,2115.0
35.524,2238.0
35.525,2256.0
35.526,2212.0
35.527,2054.0
35.528,1939.0
35.529,1943.0
35.53,1966.0
35.531,2128.0
35.532,2253.0
35.533,2243.0
35.534,2179.0
35.535,2016.0
35.536,1932.0
35.537,1949.0
35.538,1979.0
35.539,2146.0
35.54,2268.0
35.541,2252.0
35.542,2156.0
35.543,1996.0
35.544,1930.0
35.545,1962.0
35.546,2016.0
35.547,2163.0
35.548,2252.0
35.549,2216.0
35.55,2097.0
35.551,1944.0
35.552,1922.0
35.553,1953.0
35.554,2030.0
35.555,2190.0
35.556,2253.0
35.557,2204.0
35.558,2065.0
35.559,1953.0
35.56,1934.0
35.561,1965.0
35.562,2048.0
35.563,2203.0
35.564,2232.0
35.565,2179.0
35.566,2030.0
35.567,1918.0
35.568,1918.0
35.569,1974.0
35.57,2069.0
35.571,2207.0
35.572,2209.0
35.573,2139.0
35.574,1984.0
35.575,1893.0
35.576,1909.0
35.577,1980.0
35.578,2088.0
35.579,2213.0
35.58,2197.0
35.581,2092.0
35.582,1946.0
35.583,1891.0
35.584,1903.0
35.585,1977.0
35.586,2082.0
35.587,2195.0
35.588,2190.0
35.589,2076.0
35.59,1941.0
35.591,1901.0
35.592,1936.0
35.593,2029.0
35.594,2131.0
35.595,2207.0
35.596,2186.0
35.597,2045.0
35.598,1923.0
35.599,1904.0
35.6,1931.0
35.601,2041.0
35.602,2141.0
35.603,2192.0
35.604,2162.0
35.605,2008.0
35.606,1906.0
35.607,1921.0
35.608,1958.0
35.609,2072.0
35.61,2147.0
35.611,2159.0
35.612,2116.0
35.613,1952.0
35.614,1882.0
35.615,1911.0
35.616,1959.0
35.617,2085.0
35.618,2150.0
35.619,2160.0
35.62,2089.0
35.621,1935.0
35.622,1879.0
35.623,1908.0
35.624,1975.0
35.625,2087.0
35.626,2145.0
35.627,2132.0
35.628,2040.0
35.629,1895.0
35.63,1861.0
35.631,1884.0
35.632,1973.0
35.633,2090.0
35.634,2108.0
35.635,2092.0
35.636,1991.0
35.637,1868.0
35.638,1860.0
35.639,1913.0
35.64,2011.0
35.641,2127.0
35.642,2126.0
35.643,2078.0
35.644,1951.0
35.645,1837.0
35.646,1858.0
35.647,1901.0
35.648,2019.0
35.649,2126.0
35.65,2102.0
35.651,2043.0
35.652,1907.0
35.653,1830.0
35.654,1853.0
35.655,1921.0
35.656,2044.0
35.657,2141.0
35.658,2093.0
35.659,2029.0
35.66,1907.0
35.661,1865.0
35.662,1897.0
35.663,1970.0
35.664,2092.0
35.665,2155.0
35.666,2122.0
35.667,2026.0
35.668,1912.0
35.669,1893.0
35.67,1930.0
35.671,2023.0
35.672,2148.0
35.673,2178.0
35.674,2108.0
35.675,1988.0
35.676,1891.0
35.677,1882.0
35.678,1925.0
35.679,2025.0
35.68,2143.0
35.681,2162.0
35.682,2087.0
35.683,1949.0
35.684,1866.0
35.685,1871.0
35.686,1911.0
35.687,2027.0
35.688,2149.0
35.689,2134.0
35.69,2065.0
35.691,1932.0
35.692,1878.0
35.693,1924.0
35.694,1976.0
35.695,2095.0
35.696,2144.0
35.697,2050.0
35.698,1838.0
35.699,1632.0
35.7,1581.0
35.701,1724.0
35.702,1969.0
35.703,2276.0
35.704,2446.0
35.705,2448.0
35.706,2376.0
35.707,2298.0
35.708,2291.0
35.709,2380.0
35.71,2450.0
35.711,2516.0
35.712,2479.0
35.713,2384.0
35.714,2203.0
35.715,2037.0
35.716,1994.0
35.717,1994.0
35.718,2056.0
35.719,2130.0
35.72,2068.0
35.721,1970.0
35.722,1771.0
35.723,1643.0
35.724,1663.0
35.725,1706.0
35.726,1826.0
35.727,1952.0
35.728,1975.0
35.729,1897.0
35.73,1712.0
35.731,1619.0
35.732,1672.0
35.733,1772.0
35.734,1925.0
35.735,2031.0
35.736,1941.0
35.737,1891.0
35.738,1692.0
35.739,1642.0
35.74,1715.0
35.741,1796.0
35.742,1927.0
35.743,2036.0
35.744,1984.0
35.745,1874.0
35.746,1724.0
35.747,1682.0
35.748,1750.0
35.749,1843.0
35.75,1984.0
35.751,2053.0
35.752,1994.0
35.753,1862.0
35.754,1743.0
35.755,1722.0
35.756,1785.0
35.757,1901.0
35.758,2022.0
35.759,2054.0
35.76,2011.0
35.761,1866.0
35.762,1747.0
35.763,1755.0
35.764,1816.0
35.765,1939.0
35.766,2060.0
35.767,2067.0
35.768,1993.0
35.769,1824.0
35.77,1723.0
35.771,1752.0
35.772,1823.0
35.773,1958.0
35.774,2062.0
35.775,2034.0
35.776,1956.0
35.777,1785.0
35.778,1719.0
35.779,1739.0
35.78,1844.0
35.781,1978.0
35.782,2054.0
35.783,2033.0
35.784,1921.0
35.785,1779.0
35.786,1741.0
35.787,1758.0
35.788,1886.0
35.789,2035.0
35.79,2099.0
35.791,2059.0
35.792,1925.0
35.793,1795.0
35.794,1784.0
35.795,1820.0
35.796,1959.0
35.797,2105.0
35.798,2151.0
35.799,2107.0
35.8,1960.0
35.801,1849.0
35.802,1861.0
35.803,1902.0
35.804,2067.0
35.805,2202.0
35.806,2204.0
35.807,2157.0
35.808,2001.0
35.809,1916.0
35.81,1923.0
35.811,1966.0
35.812,2123.0
35.813,2257.0
35.814,2242.0
35.815,2165.0
35.816,2011.0
35.817,1946.0
35.818,1966.0
35.819,2028.0
35.82,2177.0
35.821,2269.0
35.822,2254.0
35.823,2161.0
35.824,2008.0
35.825,1957.0
35.826,1977.0
35.827,2046.0
35.828,2210.0
35.829,2279.0
35.83,2240.0
35.831,2117.0
35.832,1969.0
35.833,1946.0
35.834,1976.0
35.835,2076.0
35.836,2246.0
35.837,2274.0
35.838,2225.0
35.839,2076.0
35.84,1974.0
35.841,1965.0
35.842,2000.0
35.843,2108.0
35.844,2267.0
35.845,2279.0
35.846,2205.0
35.847,2061.0
35.848,1963.0
35.849,1967.0
35.85,2009.0
35.851,2115.0
35.852,2240.0
35.853,2241.0
35.854,2169.0
35.855,2012.0
35.856,1941.0
35.857,1960.0
35.858,2025.0
35.859,2126.0
35.86,2246.0
35.861,2229.0
35.862,2127.0
35.863,1977.0
35.864,1924.0
35.865,1954.0
35.866,2020.0
35.867,2125.0
35.868,2227.0
35.869,2210.0
35.87,2082.0
35.871,1959.0
35.872,1931.0
35.873,1949.0
35.874,2037.0
35.875,2143.0
35.876,2219.0
35.877,2185.0
35.878,2056.0
35.879,1946.0
35.88,1944.0
35.881,1978.0
35.882,2080.0
35.883,2184.0
35.884,2198.0
35.885,2140.0
35.886,1983.0
35.887,1898.0
35.888,1923.0
35.889,1997.0
35.89,2121.0
35.891,2201.0
35.892,2218.0
35.893,2150.0
35.894,1985.0
35.895,1916.0
35.896,1940.0
35.897,2009.0
35.898,2139.0
35.899,2206.0
35.9,2206.0
35.901,2121.0
35.902,1962.0
35.903,1927.0
35.904,1948.0
35.905,2036.0
35.906,2149.0
35.907,2192.0
35.908,2191.0
35.909,2085.0
35.91,1947.0
35.911,1931.0
35.912,1943.0
35.913,2024.0
35.914,2152.0
35.915,2185.0
35.916,2199.0
35.917,2070.0
35.918,1949.0
35.919,1957.0
35.92,1993.0
35.921,2101.0
35.922,2211.0
35.923,2190.0
35.924,2159.0
35.925,2026.0
35.926,1934.0
35.927,1965.0
35.928,2014.0
35.929,2128.0
35.93,2237.0
35.931,2201.0
35.932,2150.0
35.933,1990.0
35.934,1924.0
35.935,1964.0
35.936,2020.0
35.937,2133.0
35.938,2211.0
35.939,2165.0
35.94,2106.0
35.941,1978.0
35.942,1938.0
35.943,1976.0
35.944,2045.0
35.945,2170.0
35.946,2215.0
35.947,2164.0
35.948,2067.0
35.949,1936.0
35.95,1917.0
35.951,1957.0
35.952,2052.0
35.953,2176.0
35.954,2201.0
35.955,2130.0
35.956,2025.0
35.957,1931.0
35.958,1937.0
35.959,1980.0
35.96,2063.0
35.961,2183.0
35.962,2179.0
35.963,2075.0
35.964,1964.0
35.965,1892.0
35.966,1911.0
35.967,1966.0
35.968,2088.0
35.969,2187.0
35.97,2159.0
35.971,2048.0
35.972,1925.0
35.973,1858.0
35.974,1906.0
35.975,1972.0
35.976,2093.0
35.977,2174.0
35.978,2127.0
35.979,2016.0
35.98,1895.0
35.981,1867.0
35.982,1903.0
35.983,1976.0
35.984,2098.0
35.985,2158.0
35.986,2114.0
35.987,1957.0
35.988,1871.0
35.989,1871.0
35.99,1898.0
35.991,1999.0
35.992,2133.0
35.993,2163.0
35.994,2098.0
35.995,1941.0
35.996,1847.0
35.997,1862.0
35.998,1904.0
35.999,2014.0
36.0,2139.0
36.001,2142.0
36.002,2062.0
36.003,1882.0
36.004,1820.0
36.005,1851.0
36.006,1908.0
36.007,2032.0
36.008,2151.0
36.009,2118.0
36.01,2034.0
36.011,1845.0
36.012,1789.0
36.013,1821.0
36.014,1887.0
36.015,2023.0
36.016,2128.0
36.017,2104.0
36.018,2009.0
36.019,1828.0
36.02,1795.0
36.021,1834.0
36.022,1918.0
36.023,2071.0
36.024,2141.0
36.025,2104.0
36.026,1966.0
36.027,1787.0
36.028,1796.0
36.029,1880.0
36.03,1993.0
36.031,2136.0
36.032,2156.0
36.033,2094.0
36.034,1956.0
36.035,1821.0
36.036,1850.0
36.037,1913.0
36.038,2029.0
36.039,2161.0
36.04,2160.0
36.041,2098.0
36.042,1943.0
36.043,1836.0
36.044,1861.0
36.045,1934.0
36.046,2051.0
36.047,2173.0
36.048,2158.0
36.049,2073.0
36.05,1906.0
36.051,1812.0
36.052,1860.0
36.053,1933.0
36.054,2053.0
36.055,2158.0
36.056,2121.0
36.057,2015.0
36.058,1878.0
36.059,1818.0
36.06,1876.0
36.061,1995.0
36.062,2097.0
36.063,2126.0
36.064,2043.0
36.065,1830.0
36.066,1636.0
36.067,1554.0
36.068,1701.0
36.069,1993.0
36.07,2294.0
36.071,2427.0
36.072,2431.0
36.073,2335.0
36.074,2267.0
36.075,2278.0
36.076,2373.0
36.077,2520.0
36.078,2616.0
36.079,2549.0
36.08,2435.0
36.081,2232.0
36.082,2095.0
36.083,2027.0
36.084,2061.0
36.085,2141.0
36.086,2202.0
36.087,2119.0
36.088,2005.0
36.089,1812.0
36.09,1708.0
36.091,1705.0
36.092,1776.0
36.093,1925.0
36.094,2025.0
36.095,1999.0
36.096,1909.0
36.097,1746.0
36.098,1697.0
36.099,1723.0
36.1,1806.0
36.101,1957.0
36.102,2038.0
36.103,2018.0
36.104,1905.0
36.105,1744.0
36.106,1728.0
36.107,1756.0
36.108,1872.0
36.109,2035.0
36.11,2086.0
36.111,2047.0
36.112,1906.0
36.113,1775.0
36.114,1771.0
36.115,1811.0
36.116,1932.0
36.117,2090.0
36.118,2108.0
36.119,2054.0
36.12,1897.0
36.121,1794.0
36.122,1805.0
36.123,1839.0
36.124,1978.0
36.125,2110.0
36.126,2104.0
36.127,2029.0
36.128,1870.0
36.129,1785.0
36.13,1821.0
36.131,1846.0
36.132,1999.0
36.133,2118.0
36.134,2075.0
36.135,2002.0
36.136,1856.0
36.137,1803.0
36.138,1814.0
36.139,1885.0
36.14,2018.0
36.141,2114.0
36.142,2082.0
36.143,1955.0
36.144,1811.0
36.145,1769.0
36.146,1811.0
36.147,1920.0
36.148,2046.0
36.149,2133.0
36.15,2098.0
36.151,1964.0
36.152,1844.0
36.153,1835.0
36.154,1864.0
36.155,1953.0
36.156,2079.0
36.157,2118.0
36.158,2072.0
36.159,1927.0
36.16,1830.0
36.161,1841.0
36.162,1894.0
36.163,2020.0
36.164,2127.0
36.165,2148.0
36.166,2097.0
36.167,1947.0
36.168,1884.0
36.169,1912.0
36.17,1980.0
36.171,2103.0
36.172,2202.0
36.173,2200.0
36.174,2114.0
36.175,1971.0
36.176,1919.0
36.177,1960.0
36.178,2041.0
36.179,2167.0
36.18,2250.0
36.181,2241.0
36.182,2154.0
36.183,2005.0
36.184,1979.0
36.185,2005.0
36.186,2099.0
36.187,2227.0
36.188,2282.0
36.189,2262.0
36.19,2136.0
36.191,1996.0
36.192,1993.0
36.193,2026.0
36.194,2126.0
36.195,2233.0
36.196,2254.0
36.197,2227.0
36.198,2091.0
36.199,1983.0
36.2,1993.0
36.201,2030.0
36.202,2160.0
36.203,2263.0
36.204,2245.0
36.205,2195.0
36.206,2035.0
36.207,1951.0
36.208,1975.0
36.209,2038.0
36.21,2170.0
36.211,2260.0
36.212,2230.0
36.213,2169.0
36.214,2019.0
36.215,1954.0
36.216,1988.0
36.217,2052.0
36.218,2158.0
36.219,2218.0
36.22,2187.0
36.221,2111.0
36.222,1992.0
36.223,1960.0
36.224,2002.0
36.225,2079.0
36.226,2189.0
36.227,2229.0
36.228,2181.0
36.229,2079.0
36.23,1955.0
36.231,1952.0
36.232,2010.0
36.233,2084.0
36.234,2237.0
36.235,2234.0
36.236,2143.0
36.237,2045.0
36.238,1952.0
36.239,1956.0
36.24,2055.0
36.241,2154.0
36.242,2225.0
36.243,2201.0
36.244,2126.0
36.245,1988.0
36.246,1939.0
36.247,1943.0
36.248,2025.0
36.249,2158.0
36.25,2252.0
36.251,2230.0
36.252,2119.0
36.253,1993.0
36.254,1946.0
36.255,1981.0
36.256,2061.0
36.257,2180.0
36.258,2249.0
36.259,2199.0
36.26,2079.0
36.261,1984.0
36.262,1960.0
36.263,1999.0
36.264,2089.0
36.265,2224.0
36.266,2255.0
36.267,2197.0
36.268,2038.0
36.269,1946.0
36.27,1943.0
36.271,1974.0
36.272,2069.0
36.273,2197.0
36.274,2213.0
36.275,2139.0
36.276,1994.0
36.277,1916.0
36.278,1936.0
36.279,1986.0
36.28,2101.0
36.281,2208.0
36.282,2197.0
36.283,2120.0
36.284,1957.0
36.285,1899.0
36.286,1935.0
36.287,1994.0
36.288,2118.0
36.289,2221.0
36.29,2175.0
36.291,2076.0
36.292,1920.0
36.293,1891.0
36.294,1935.0
36.295,2003.0
36.296,2127.0
36.297,2211.0
36.298,2164.0
36.299,2037.0
36.3,1897.0
36.301,1886.0
36.302,1940.0
36.303,2042.0
36.304,2164.0
36.305,2209.0
36.306,2158.0
36.307,2010.0
36.308,1876.0
36.309,1890.0
36.31,1947.0
36.311,2039.0
36.312,2161.0
36.313,2183.0
36.314,2120.0
36.315,1966.0
36.316,1850.0
36.317,1898.0
36.318,1956.0
36.319,2081.0
36.32,2200.0
36.321,2182.0
36.322,2102.0
36.323,1942.0
36.324,1845.0
36.325,1899.0
36.326,1970.0
36.327,2081.0
36.328,2188.0
36.329,2171.0
36.33,2081.0
36.331,1915.0
36.332,1836.0
36.333,1893.0
36.334,1976.0
36.335,2101.0
36.336,2198.0
36.337,2159.0
36.338,2038.0
36.339,1896.0
36.34,1848.0
36.341,1899.0
36.342,1994.0
36.343,2114.0
36.344,2179.0
36.345,2131.0
36.346,1994.0
36.347,1862.0
36.348,1819.0
36.349,1882.0
36.35,1991.0
36.351,2131.0
36.352,2150.0
36.353,2102.0
36.354,1942.0
36.355,1816.0
36.356,1813.0
36.357,1892.0
36.358,2011.0
36.359,2139.0
36.36,2139.0
36.361,2056.0
36.362,1882.0
36.363,1790.0
36.364,1819.0
36.365,1918.0
36.366,2051.0
36.367,2156.0
36.368,2138.0
36.369,2046.0
36.37,1878.0
36.371,1814.0
36.372,1843.0
36.373,1944.0
36.374,2085.0
36.375,2178.0
36.376,2158.0
36.377,2042.0
36.378,1881.0
36.379,1825.0
36.38,1855.0
36.381,1973.0
36.382,2113.0
36.383,2192.0
36.384,2155.0
36.385,2013.0
36.386,1863.0
36.387,1839.0
36.388,1862.0
36.389,1981.0
36.39,2136.0
36.391,2168.0
36.392,2132.0
36.393,1980.0
36.394,1837.0
36.395,1841.0
36.396,1865.0
36.397,2033.0
36.398,2170.0
36.399,2166.0
36.4,2098.0
36.401,1932.0
36.402,1830.0
36.403,1853.0
36.404,1911.0
36.405,2081.0
36.406,2207.0
36.407,2178.0
36.408,2064.0
36.409,1843.0
36.41,1684.0
36.411,1659.0
36.412,1666.0
36.413,1876.0
36.414,2144.0
36.415,2272.0
36.416,2272.0
36.417,2176.0
36.418,2179.0
36.419,2274.0
36.42,2369.0
36.421,2584.0
36.422,2647.0
36.423,2595.0
36.424,2405.0
36.425,2195.0
36.426,2121.0
36.427,2108.0
36.428,2125.0
36.429,2257.0
36.43,2261.0
36.431,2175.0
36.432,1968.0
36.433,1809.0
36.434,1786.0
36.435,1797.0
36.436,1847.0
36.437,2003.0
36.438,2009.0
36.439,1951.0
36.44,1803.0
36.441,1709.0
36.442,1727.0
36.443,1793.0
36.444,1898.0
36.445,2029.0
36.446,2027.0
36.447,1957.0
36.448,1798.0
36.449,1723.0
36.45,1756.0
36.451,1830.0
36.452,1932.0
36.453,2064.0
36.454,2046.0
36.455,1946.0
36.456,1804.0
36.457,1762.0
36.458,1798.0
36.459,1882.0
36.46,1972.0
36.461,2068.0
36.462,2035.0
36.463,1905.0
36.464,1785.0
36.465,1771.0
36.466,1806.0
36.467,1889.0
36.468,1993.0
36.469,2048.0
36.47,2014.0
36.471,1874.0
36.472,1771.0
36.473,1772.0
36.474,1811.0
36.475,1915.0
36.476,1998.0
36.477,2041.0
36.478,2000.0
36.479,1842.0
36.48,1759.0
36.481,1776.0
36.482,1826.0
36.483,1942.0
36.484,2019.0
36.485,2040.0
36.486,1984.0
36.487,1823.0
36.488,1765.0
36.489,1785.0
36.49,1857.0
36.491,1977.0
36.492,2047.0
36.493,2032.0
36.494,1959.0
36.495,1822.0
36.496,1791.0
36.497,1817.0
36.498,1905.0
36.499,2028.0
36.5,2070.0
36.501,2069.0
36.502,1968.0
36.503,1839.0
36.504,1846.0
36.505,1887.0
36.506,1986.0
36.507,2112.0
36.508,2124.0
36.509,2104.0
36.51,2004.0
36.511,1894.0
36.512,1912.0
36.513,1967.0
36.514,2072.0
36.515,2199.0
36.516,2179.0
36.517,2147.0
36.518,2015.0
36.519,1933.0
36.52,1970.0
36.521,2029.0
36.522,2142.0
36.523,2255.0
36.524,2222.0
36.525,2173.0
36.526,2037.0
36.527,1968.0
36.528,2011.0
36.529,2072.0
36.53,2189.0
36.531,2273.0
36.532,2209.0
36.533,2130.0
36.534,2001.0
36.535,1954.0
36.536,1984.0
36.537,2072.0
36.538,2180.0
36.539,2247.0
36.54,2192.0
36.541,2085.0
36.542,1967.0
36.543,1947.0
36.544,1986.0
36.545,2085.0
36.546,2204.0
36.547,2234.0
36.548,2151.0
36.549,2034.0
36.55,1940.0
36.551,1947.0
36.552,2000.0
36.553,2115.0
36.554,2230.0
36.555,2232.0
36.556,2122.0
36.557,1987.0
36.558,1914.0
36.559,1942.0
36.56,2000.0
36.561,2120.0
36.562,2227.0
36.563,2211.0
36.564,2111.0
36.565,1984.0
36.566,1937.0
36.567,1986.0
36.568,2049.0
36.569,2162.0
36.57,2239.0
36.571,2205.0
36.572,2082.0
36.573,1954.0
36.574,1925.0
36.575,1958.0
36.576,2033.0
36.577,2157.0
36.578,2223.0
36.579,2191.0
36.58,2062.0
36.581,1942.0
36.582,1938.0
36.583,1973.0
36.584,2065.0
36.585,2196.0
36.586,2219.0
36.587,2171.0
36.588,2027.0
36.589,1922.0
36.59,1939.0
36.591,1995.0
36.592,2097.0
36.593,2212.0
36.594,2215.0
36.595,2161.0
36.596,2003.0
36.597,1925.0
36.598,1962.0
36.599,2010.0
36.6,2131.0
36.601,2243.0
36.602,2216.0
36.603,2120.0
36.604,1961.0
36.605,1909.0
36.606,1972.0
36.607,2046.0
36.608,2169.0
36.609,2275.0
36.61,2225.0
36.611,2134.0
36.612,1964.0
36.613,1920.0
36.614,1961.0
36.615,2046.0
36.616,2172.0
36.617,2265.0
36.618,2223.0
36.619,2099.0
36.62,1947.0
36.621,1919.0
36.622,1977.0
36.623,2078.0
36.624,2212.0
36.625,2259.0
36.626,2197.0
36.627,2056.0
36.628,1927.0
36.629,1931.0
36.63,1987.0
36.631,2089.0
36.632,2208.0
36.633,2218.0
36.634,2148.0
36.635,1986.0
36.636,1873.0
36.637,1907.0
36.638,2002.0
36.639,2131.0
36.64,2229.0
36.641,2216.0
36.642,2133.0
36.643,1964.0
36.644,1890.0
36.645,1902.0
36.646,1978.0
36.647,2107.0
36.648,2200.0
36.649,2180.0
36.65,2072.0
36.651,1928.0
36.652,1871.0
36.653,1896.0
36.654,2005.0
36.655,2138.0
36.656,2211.0
36.657,2189.0
36.658,2066.0
36.659,1917.0
36.66,1877.0
36.661,1913.0
36.662,2042.0
36.663,2180.0
36.664,2219.0
36.665,2176.0
36.666,2030.0
36.667,1908.0
36.668,1903.0
36.669,1942.0
36.67,2070.0
36.671,2212.0
36.672,2227.0
36.673,2176.0
36.674,2011.0
36.675,1908.0
36.676,1912.0
36.677,1956.0
36.678,2081.0
36.679,2200.0
36.68,2178.0
36.681,2101.0
36.682,1928.0
36.683,1837.0
36.684,1867.0
36.685,1919.0
36.686,2071.0
36.687,2177.0
36.688,2159.0
36.689,2069.0
36.69,1897.0
36.691,1845.0
36.692,1856.0
36.693,1927.0
36.694,2097.0
36.695,2183.0
36.696,2141.0
36.697,2009.0
36.698,1877.0
36.699,1846.0
36.7,1878.0
36.701,1955.0
36.702,2119.0
36.703,2178.0
36.704,2121.0
36.705,1992.0
36.706,1859.0
36.707,1841.0
36.708,1874.0
36.709,1965.0
36.71,2114.0
36.711,2132.0
36.712,2066.0
36.713,1926.0
36.714,1820.0
36.715,1837.0
36.716,1880.0
36.717,1986.0
36.718,2133.0
36.719,2140.0
36.72,2064.0
36.721,1891.0
36.722,1815.0
36.723,1846.0
36.724,1891.0
36.725,2002.0
36.726,2138.0
36.727,2128.0
36.728,2033.0
36.729,1888.0
36.73,1829.0
36.731,1883.0
36.732,1956.0
36.733,2094.0
36.734,2216.0
36.735,2209.0
36.736,2048.0
36.737,1814.0
36.738,1685.0
36.739,1704.0
36.74,1717.0
36.741,1928.0
36.742,2176.0
36.743,2280.0
36.744,2242.0
36.745,2133.0
36.746,2197.0
36.747,2290.0
36.748,2473.0
36.749,2620.0
36.75,2664.0
36.751,2596.0
36.752,2365.0
36.753,2208.0
36.754,2170.0
36.755,2173.0
36.756,2229.0
36.757,2290.0
36.758,2278.0
36.759,2182.0
36.76,1946.0
36.761,1812.0
36.762,1796.0
36.763,1824.0
36.764,1909.0
36.765,2015.0
36.766,2011.0
36.767,1933.0
36.768,1778.0
36.769,1725.0
36.77,1752.0
36.771,1832.0
36.772,1964.0
36.773,2044.0
36.774,2028.0
36.775,1936.0
36.776,1792.0
36.777,1748.0
36.778,1786.0
36.779,1878.0
36.78,2014.0
36.781,2049.0
36.782,2040.0
36.783,1919.0
36.784,1780.0
36.785,1787.0
36.786,1832.0
36.787,1940.0
36.788,2070.0
36.789,2074.0
36.79,2042.0
36.791,1901.0
36.792,1794.0
36.793,1820.0
36.794,1861.0
36.795,1983.0
36.796,2095.0
36.797,2068.0
36.798,2043.0
36.799,1894.0
36.8,1813.0
36.801,1839.0
36.802,1899.0
36.803,2035.0
36.804,2127.0
36.805,2093.0
36.806,2028.0
36.807,1877.0
36.808,1810.0
36.809,1855.0
36.81,1916.0
36.811,2041.0
36.812,2107.0
36.813,2059.0
36.814,1978.0
36.815,1831.0
36.816,1803.0
36.817,1832.0
36.818,1923.0
36.819,2058.0
36.82,2088.0
36.821,2035.0
36.822,1931.0
36.823,1808.0
36.824,1802.0
36.825,1853.0
36.826,1959.0
36.827,2092.0
36.828,2091.0
36.829,2026.0
36.83,1933.0
36.831,1835.0
36.832,1854.0
36.833,1920.0
36.834,2031.0
36.835,2135.0
36.836,2107.0
36.837,2001.0
36.838,1883.0
36.839,1826.0
36.84,1863.0
36.841,1927.0
36.842,2048.0
36.843,2154.0
36.844,2120.0
36.845,2000.0
36.846,1883.0
36.847,1831.0
36.848,1866.0
36.849,1948.0
36.85,2085.0
36.851,2171.0
36.852,2131.0
36.853,2013.0
36.854,1899.0
36.855,1881.0
36.856,1923.0
36.857,2019.0
36.858,2155.0
36.859,2198.0
36.86,2165.0
36.861,2017.0
36.862,1913.0
36.863,1913.0
36.864,1953.0
36.865,2064.0
36.866,2206.0
36.867,2214.0
36.868,2147.0
36.869,1973.0
36.87,1915.0
36.871,1946.0
36.872,1999.0
36.873,2126.0
36.874,2255.0
36.875,2233.0
36.876,2159.0
36.877,1971.0
36.878,1920.0
36.879,1971.0
36.88,2026.0
36.881,2151.0
36.882,2256.0
36.883,2224.0
36.884,2123.0
36.885,1949.0
36.886,1919.0
36.887,1964.0
36.888,2046.0
36.889,2183.0
36.89,2254.0
36.891,2205.0
36.892,2098.0
36.893,1924.0
36.894,1936.0
36.895,1988.0
36.896,2070.0
36.897,2217.0
36.898,2253.0
36.899,2196.0
36.9,2065.0
36.901,1910.0
36.902,1936.0
36.903,1990.0
36.904,2095.0
36.905,2234.0
36.906,2240.0
36.907,2176.0
36.908,2026.0
36.909,1891.0
36.91,1918.0
36.911,1988.0
36.912,2120.0
36.913,2253.0
36.914,2235.0
36.915,2167.0
36.916,2000.0
36.917,1881.0
36.918,1933.0
36.919,2003.0
36.92,2132.0
36.921,2257.0
36.922,2216.0
36.923,2142.0
36.924,1986.0
36.925,1912.0
36.926,1962.0
36.927,2048.0
36.928,2172.0
36.929,2257.0
36.93,2201.0
36.931,2094.0
36.932,1933.0
36.933,1880.0
36.934,1934.0
36.935,2038.0
36.936,2181.0
36.937,2233.0
36.938,2174.0
36.939,2053.0
36.94,1898.0
36.941,1862.0
36.942,1921.0
36.943,2055.0
36.944,2184.0
36.945,2190.0
36.946,2145.0
36.947,2000.0
36.948,1879.0
36.949,1857.0
36.95,1916.0
36.951,2053.0
36.952,2187.0
36.953,2195.0
36.954,2128.0
36.955,1954.0
36.956,1860.0
36.957,1859.0
36.958,1937.0
36.959,2091.0
36.96,2201.0
36.961,2154.0
36.962,2100.0
36.963,1922.0
36.964,1844.0
36.965,1858.0
36.966,1954.0
36.967,2115.0
36.968,2194.0
36.969,2169.0
36.97,2067.0
36.971,1901.0
36.972,1850.0
36.973,1867.0
36.974,1971.0
36.975,2137.0
36.976,2175.0
36.977,2140.0
36.978,2034.0
36.979,1890.0
36.98,1874.0
36.981,1888.0
36.982,1999.0
36.983,2154.0
36.984,2153.0
36.985,2107.0
36.986,1975.0
36.987,1841.0
36.988,1837.0
36.989,1865.0
36.99,2012.0
36.991,2153.0
36.992,2141.0
36.993,2073.0
36.994,1906.0
36.995,1797.0
36.996,1816.0
36.997,1853.0
36.998,1990.0
36.999,2131.0
37.0,2096.0
37.001,2023.0
37.002,1858.0
37.003,1782.0
37.004,1824.0
37.005,1853.0
37.006,2000.0
37.007,2101.0
37.008,2066.0
37.009,1972.0
37.01,1827.0
37.011,1779.0
37.012,1808.0
37.013,1879.0
37.014,2044.0
37.015,2126.0
37.016,2083.0
37.017,1964.0
37.018,1812.0
37.019,1795.0
37.02,1848.0
37.021,1927.0
37.022,2093.0
37.023,2120.0
37.024,2078.0
37.025,1933.0
37.026,1822.0
37.027,1826.0
37.028,1872.0
37.029,1976.0
37.03,2123.0
37.031,2141.0
37.032,2071.0
37.033,1914.0
37.034,1834.0
37.035,1836.0
37.036,1882.0
37.037,1991.0
37.038,2117.0
37.039,2120.0
37.04,2051.0
37.041,1889.0
37.042,1821.0
37.043,1850.0
37.044,1931.0
37.045,2064.0
37.046,2182.0
37.047,2166.0
37.048,2040.0
37.049,1821.0
37.05,1699.0
37.051,1653.0
37.052,1667.0
37.053,1807.0
37.054,2020.0
37.055,2173.0
37.056,2217.0
37.057,2135.0
37.058,2191.0
37.059,2272.0
37.06,2425.0
37.061,2566.0
37.062,2638.0
37.063,2597.0
37.064,2412.0
37.065,2198.0
37.066,2154.0
37.067,2173.0
37.068,2259.0
37.069,2311.0
37.07,2271.0
37.071,2191.0
37.072,1985.0
37.073,1846.0
37.074,1824.0
37.075,1865.0
37.076,1956.0
37.077,2023.0
37.078,2008.0
37.079,1953.0
37.08,1813.0
37.081,1750.0
37.082,1791.0
37.083,1852.0
37.084,1980.0
37.085,2061.0
37.086,2028.0
37.087,1966.0
37.088,1818.0
37.089,1775.0
37.09,1818.0
37.091,1898.0
37.092,2016.0
37.093,2075.0
37.094,2038.0
37.095,1956.0
37.096,1836.0
37.097,1809.0
37.098,1853.0
37.099,1954.0
37.1,2097.0
37.101,2116.0
37.102,2063.0
37.103,1939.0
37.104,1829.0
37.105,1836.0
37.106,1874.0
37.107,1984.0
37.108,2113.0
37.109,2107.0
37.11,2036.0
37.111,1916.0
37.112,1814.0
37.113,1838.0
37.114,1902.0
37.115,2027.0
37.116,2128.0
37.117,2087.0
37.118,2014.0
37.119,1880.0
37.12,1815.0
37.121,1835.0
37.122,1911.0
37.123,2043.0
37.124,2137.0
37.125,2090.0
37.126,1980.0
37.127,1869.0
37.128,1841.0
37.129,1880.0
37.13,1958.0
37.131,2090.0
37.132,2140.0
37.133,2104.0
37.134,1974.0
37.135,1865.0
37.136,1854.0
37.137,1889.0
37.138,1994.0
37.139,2142.0
37.14,2169.0
37.141,2116.0
37.142,1975.0
37.143,1890.0
37.144,1901.0
37.145,1948.0
37.146,2063.0
37.147,2208.0
37.148,2215.0
37.149,2141.0
37.15,1989.0
37.151,1926.0
37.152,1956.0
37.153,2017.0
37.154,2160.0
37.155,2271.0
37.156,2233.0
37.157,2169.0
37.158,2007.0
37.159,1957.0
37.16,2014.0
37.161,2083.0
37.162,2231.0
37.163,2308.0
37.164,2270.0
37.165,2171.0
37.166,1992.0
37.167,1971.0
37.168,2018.0
37.169,2108.0
37.17,2256.0
37.171,2302.0
37.172,2252.0
37.173,2123.0
37.174,1981.0
37.175,1975.0
37.176,2017.0
37.177,2118.0
37.178,2274.0
37.179,2282.0
37.18,2221.0
37.181,2079.0
37.182,1947.0
37.183,1970.0
37.184,2019.0
37.185,2127.0
37.186,2253.0
37.187,2241.0
37.188,2175.0
37.189,2010.0
37.19,1890.0
37.191,1940.0
37.192,1984.0
37.193,2104.0
37.194,2220.0
37.195,2183.0
37.196,2104.0
37.197,1938.0
37.198,1860.0
37.199,1921.0
37.2,1989.0
37.201,2126.0
37.202,2214.0
37.203,2164.0
37.204,2067.0
37.205,1903.0
37.206,1827.0
37.207,1897.0
37.208,1992.0
37.209,2118.0
37.21,2183.0
37.211,2136.0
37.212,2014.0
37.213,1860.0
37.214,1834.0
37.215,1909.0
37.216,2018.0
37.217,2155.0
37.218,2189.0
37.219,2126.0
37.22,1983.0
37.221,1854.0
37.222,1841.0
37.223,1922.0
37.224,2042.0
37.225,2195.0
37.226,2179.0
37.227,2115.0
37.228,1957.0
37.229,1852.0
37.23,1863.0
37.231,1941.0
37.232,2033.0
37.233,2182.0
37.234,2177.0
37.235,2091.0
37.236,1934.0
37.237,1854.0
37.238,1870.0
37.239,1934.0
37.24,2093.0
37.241,2215.0
37.242,2179.0
37.243,2056.0
37.244,1879.0
37.245,1864.0
37.246,1876.0
37.247,1997.0
37.248,2137.0
37.249,2187.0
37.25,2180.0
37.251,2084.0
37.252,1910.0
37.253,1877.0
37.254,1862.0
37.255,2024.0
37.256,2157.0
37.257,2205.0
37.258,2157.0
37.259,2018.0
37.26,1888.0
37.261,1886.0
37.262,1901.0
37.263,2040.0
37.264,2177.0
37.265,2190.0
37.266,2130.0
37.267,1986.0
37.268,1887.0
37.269,1893.0
37.27,1899.0
37.271,2059.0
37.272,2191.0
37.273,2178.0
37.274,2128.0
37.275,1951.0
37.276,1865.0
37.277,1879.0
37.278,1929.0
37.279,2083.0
37.28,2186.0
37.281,2160.0
37.282,2079.0
37.283,1919.0
37.284,1860.0
37.285,1884.0
37.286,1927.0
37.287,2103.0
37.288,2194.0
37.289,2165.0
37.29,2063.0
37.291,1912.0
37.292,1876.0
37.293,1905.0
37.294,1981.0
37.295,2140.0
37.296,2190.0
37.297,2150.0
37.298,2023.0
37.299,1889.0
37.3,1892.0
37.301,1933.0
37.302,2031.0
37.303,2193.0
37.304,2208.0
37.305,2156.0
37.306,2004.0
37.307,1897.0
37.308,1916.0
37.309,1951.0
37.31,2037.0
37.311,2182.0
37.312,2175.0
37.313,2113.0
37.314,1965.0
37.315,1884.0
37.316,1911.0
37.317,1967.0
37.318,2074.0
37.319,2210.0
37.32,2178.0
37.321,2102.0
37.322,1950.0
37.323,1883.0
37.324,1908.0
37.325,1988.0
37.326,2092.0
37.327,2215.0
37.328,2211.0
37.329,2091.0
37.33,1954.0
37.331,1922.0
37.332,1952.0
37.333,2040.0
37.334,2148.0
37.335,2225.0
37.336,2193.0
37.337,2072.0
37.338,1936.0
37.339,1915.0
37.34,1947.0
37.341,2059.0
37.342,2158.0
37.343,2210.0
37.344,2170.0
37.345,2027.0
37.346,1926.0
37.347,1938.0
37.348,1979.0
37.349,2089.0
37.35,2185.0
37.351,2190.0
37.352,2141.0
37.353,1982.0
37.354,1912.0
37.355,1931.0
37.356,1982.0
37.357,2120.0
37.358,2202.0
37.359,2202.0
37.36,2144.0
37.361,2002.0
37.362,1946.0
37.363,1938.0
37.364,1945.0
37.365,1966.0
37.366,1965.0
37.367,1913.0
37.368,1893.0
37.369,1920.0
37.37,2058.0
37.371,2244.0
37.372,2382.0
37.373,2557.0
37.374,2638.0
37.375,2637.0
37.376,2544.0
37.377,2424.0
37.378,2387.0
37.379,2339.0
37.38,2370.0
37.381,2461.0
37.382,2417.0
37.383,2344.0
37.384,2162.0
37.385,2020.0
37.386,1983.0
37.387,1964.0
37.388,2015.0
37.389,2088.0
37.39,2018.0
37.391,1953.0
37.392,1789.0
37.393,1692.0
37.394,1719.0
37.395,1788.0
37.396,1903.0
37.397,2009.0
37.398,1956.0
37.399,1888.0
37.4,1742.0
37.401,1695.0
37.402,1728.0
37.403,1807.0
37.404,1943.0
37.405,2021.0
37.406,1979.0
37.407,1894.0
37.408,1777.0
37.409,1742.0
37.41,1777.0
37.411,1865.0
37.412,1996.0
37.413,2034.0
37.414,1972.0
37.415,1869.0
37.416,1785.0
37.417,1781.0
37.418,1825.0
37.419,1930.0
37.42,2057.0
37.421,2069.0
37.422,1995.0
37.423,1872.0
37.424,1787.0
37.425,1796.0
37.426,1850.0
37.427,1966.0
37.428,2079.0
37.429,2058.0
37.43,1972.0
37.431,1836.0
37.432,1768.0
37.433,1797.0
37.434,1869.0
37.435,2008.0
37.436,2099.0
37.437,2056.0
37.438,1952.0
37.439,1814.0
37.44,1772.0
37.441,1808.0
37.442,1873.0
37.443,1993.0
37.444,2062.0
37.445,2026.0
37.446,1895.0
37.447,1787.0
37.448,1780.0
37.449,1817.0
37.45,1898.0
37.451,2036.0
37.452,2084.0
37.453,2038.0
37.454,1903.0
37.455,1823.0
37.456,1834.0
37.457,1884.0
37.458,2003.0
37.459,2136.0
37.46,2148.0
37.461,2092.0
37.462,1945.0
37.463,1869.0
37.464,1911.0
37.465,1967.0
37.466,2081.0
37.467,2214.0
37.468,2206.0
37.469,2156.0
37.47,1990.0
37.471,1923.0
37.472,1964.0
37.473,2032.0
37.474,2156.0
37.475,2275.0
37.476,2245.0
37.477,2168.0
37.478,2009.0
37.479,1959.0
37.48,2020.0
37.481,2092.0
37.482,2214.0
37.483,2306.0
37.484,2269.0
37.485,2168.0
37.486,2009.0
37.487,1976.0
37.488,2026.0
37.489,2121.0
37.49,2254.0
37.491,2302.0
37.492,2253.0
37.493,2125.0
37.494,1970.0
37.495,1969.0
37.496,2040.0
37.497,2160.0
37.498,2293.0
37.499,2306.0
37.5,2254.0
37.501,2096.0
37.502,1975.0
37.503,1993.0
37.504,2052.0
37.505,2165.0
37.506,2276.0
37.507,2267.0
37.508,2199.0
37.509,2044.0
37.51,1952.0
37.511,1973.0
37.512,2053.0
37.513,2190.0
37.514,2282.0
37.515,2247.0
37.516,2163.0
37.517,2006.0
37.518,1951.0
37.519,1970.0
37.52,2073.0
37.521,2193.0
37.522,2288.0
37.523,2244.0
37.524,2136.0
37.525,1981.0
37.526,1933.0
37.527,1966.0
37.528,2072.0
37.529,2211.0
37.53,2275.0
37.531,2231.0
37.532,2108.0
37.533,1975.0
37.534,1955.0
37.535,1995.0
37.536,2126.0
37.537,2265.0
37.538,2281.0
37.539,2225.0
37.54,2079.0
37.541,1953.0
37.542,1942.0
37.543,1992.0
37.544,2135.0
37.545,2275.0
37.546,2260.0
37.547,2196.0
37.548,2018.0
37.549,1934.0
37.55,1966.0
37.551,2025.0
37.552,2164.0
37.553,2277.0
37.554,2248.0
37.555,2166.0
37.556,1999.0
37.557,1929.0
37.558,1947.0
37.559,2000.0
37.56,2139.0
37.561,2220.0
37.562,2185.0
37.563,2080.0
37.564,1920.0
37.565,1872.0
37.566,1891.0
37.567,1980.0
37.568,2127.0
37.569,2178.0
37.57,2136.0
37.571,2008.0
37.572,1859.0
37.573,1839.0
37.574,1855.0
37.575,1971.0
37.576,2135.0
37.577,2169.0
37.578,2107.0
37.579,1966.0
37.58,1851.0
37.581,1843.0
37.582,1872.0
37.583,1971.0
37.584,2114.0
37.585,2123.0
37.586,2068.0
37.587,1913.0
37.588,1821.0
37.589,1834.0
37.59,1875.0
37.591,1986.0
37.592,2116.0
37.593,2108.0
37.594,2020.0
37.595,1870.0
37.596,1805.0
37.597,1824.0
37.598,1884.0
37.599,2008.0
37.6,2114.0
37.601,2089.0
37.602,1992.0
37.603,1862.0
37.604,1824.0
37.605,1858.0
37.606,1923.0
37.607,2027.0
37.608,2106.0
37.609,2091.0
37.61,1984.0
37.611,1868.0
37.612,1859.0
37.613,1885.0
37.614,1967.0
37.615,2083.0
37.616,2138.0
37.617,2101.0
37.618,1953.0
37.619,1847.0
37.62,1847.0
37.621,1890.0
37.622,1990.0
37.623,2099.0
37.624,2121.0
37.625,2084.0
37.626,1940.0
37.627,1844.0
37.628,1855.0
37.629,1897.0
37.63,2008.0
37.631,2100.0
37.632,2115.0
37.633,2058.0
37.634,1914.0
37.635,1844.0
37.636,1876.0
37.637,1934.0
37.638,2050.0
37.639,2111.0
37.64,2107.0
37.641,2010.0
37.642,1865.0
37.643,1839.0
37.644,1865.0
37.645,1945.0
37.646,2050.0
37.647,2113.0
37.648,2102.0
37.649,1992.0
37.65,1859.0
37.651,1837.0
37.652,1869.0
37.653,1957.0
37.654,2077.0
37.655,2087.0
37.656,2076.0
37.657,1961.0
37.658,1855.0
37.659,1862.0
37.66,1904.0
37.661,2009.0
37.662,2100.0
37.663,2080.0
37.664,2065.0
37.665,1918.0
37.666,1829.0
37.667,1857.0
37.668,1915.0
37.669,2033.0
37.67,2148.0
37.671,2102.0
37.672,2057.0
37.673,1916.0
37.674,1855.0
37.675,1879.0
37.676,1939.0
37.677,2072.0
37.678,2150.0
37.679,2112.0
37.68,2044.0
37.681,1898.0
37.682,1855.0
37.683,1889.0
37.684,1962.0
37.685,2083.0
37.686,2137.0
37.687,2086.0
37.688,1991.0
37.689,1872.0
37.69,1852.0
37.691,1898.0
37.692,1987.0
37.693,2107.0
37.694,2122.0
37.695,2046.0
37.696,1946.0
37.697,1858.0
37.698,1864.0
37.699,1916.0
37.7,2025.0
37.701,2131.0
37.702,2113.0
37.703,2031.0
37.704,1927.0
37.705,1857.0
37.706,1891.0
37.707,1946.0
37.708,2070.0
37.709,2153.0
37.71,2127.0
37.711,2026.0
37.712,1921.0
37.713,1876.0
37.714,1911.0
37.715,1972.0
37.716,2104.0
37.717,2169.0
37.718,2124.0
37.719,1994.0
37.72,1891.0
37.721,1870.0
37.722,1907.0
37.723,1999.0
37.724,2126.0
37.725,2182.0
37.726,2149.0
37.727,1991.0
37.728,1896.0
37.729,1894.0
37.73,1954.0
37.731,2057.0
37.732,2192.0
37.733,2190.0
37.734,2131.0
37.735,1981.0
37.736,1921.0
37.737,1956.0
37.738,2012.0
37.739,2147.0
37.74,2233.0
37.741,2222.0
37.742,2137.0
37.743,1971.0
37.744,1925.0
37.745,1977.0
37.746,2044.0
37.747,2128.0
37.748,2259.0
37.749,2131.0
37.75,2043.0
37.751,1759.0
37.752,1676.0
37.753,1755.0
37.754,1942.0
37.755,2227.0
37.756,2502.0
37.757,2539.0
37.758,2485.0
37.759,2364.0
37.76,2382.0
37.761,2443.0
37.762,2556.0
37.763,2679.0
37.764,2681.0
37.765,2556.0
37.766,2377.0
37.767,2171.0
37.768,2133.0
37.769,2121.0
37.77,2176.0
37.771,2281.0
37.772,2262.0
37.773,2149.0
37.774,1956.0
37.775,1784.0
37.776,1805.0
37.777,1848.0
37.778,1949.0
37.779,2070.0
37.78,2066.0
37.781,2025.0
37.782,1889.0
37.783,1768.0
37.784,1813.0
37.785,1878.0
37.786,1999.0
37.787,2124.0
37.788,2096.0
37.789,2014.0
37.79,1866.0
37.791,1794.0
37.792,1835.0
37.793,1912.0
37.794,2033.0
37.795,2139.0
37.796,2109.0
37.797,2018.0
37.798,1874.0
37.799,1818.0
37.8,1884.0
37.801,1981.0
37.802,2105.0
37.803,2182.0
37.804,2142.0
37.805,2032.0
37.806,1900.0
37.807,1867.0
37.808,1915.0
37.809,2031.0
37.81,2169.0
37.811,2215.0
37.812,2160.0
37.813,2030.0
37.814,1904.0
37.815,1893.0
37.816,1944.0
37.817,2068.0
37.818,2209.0
37.819,2216.0
37.82,2154.0
37.821,1994.0
37.822,1886.0
37.823,1880.0
37.824,1947.0
37.825,2082.0
37.826,2192.0
37.827,2187.0
37.828,2106.0
37.829,1926.0
37.83,1837.0
37.831,1844.0
37.832,1927.0
37.833,2085.0
37.834,2173.0
37.835,2148.0
37.836,2057.0
37.837,1912.0
37.838,1863.0
37.839,1880.0
37.84,1976.0
37.841,2116.0
37.842,2182.0
37.843,2156.0
37.844,2055.0
37.845,1928.0
37.846,1909.0
37.847,1929.0
37.848,2069.0
37.849,2210.0
37.85,2244.0
37.851,2224.0
37.852,2095.0
37.853,1975.0
37.854,1996.0
37.855,2019.0
37.856,2155.0
37.857,2305.0
37.858,2322.0
37.859,2276.0
37.86,2128.0
37.861,2027.0
37.862,2048.0
37.863,2076.0
37.864,2214.0
37.865,2348.0
37.866,2325.0
37.867,2264.0
37.868,2124.0
37.869,2038.0
37.87,2069.0
37.871,2096.0
37.872,2233.0
37.873,2345.0
37.874,2323.0
37.875,2248.0
37.876,2104.0
37.877,2042.0
37.878,2069.0
37.879,2124.0
37.88,2252.0
37.881,2345.0
37.882,2316.0
37.883,2184.0
37.884,2061.0
37.885,2027.0
37.886,2057.0
37.887,2122.0
37.888,2257.0
37.889,2306.0
37.89,2263.0
37.891,2133.0
37.892,2019.0
37.893,2019.0
37.894,2068.0
37.895,2151.0
37.896,2269.0
37.897,2302.0
37.898,2247.0
37.899,2107.0
37.9,2012.0
37.901,2008.0
37.902,2055.0
37.903,2142.0
37.904,2255.0
37.905,2254.0
37.906,2178.0
37.907,2026.0
37.908,1957.0
37.909,1994.0
37.91,2050.0
37.911,2151.0
37.912,2247.0
37.913,2237.0
37.914,2151.0
37.915,2019.0
37.916,1966.0
37.917,1988.0
37.918,2052.0
37.919,2145.0
37.92,2224.0
37.921,2207.0
37.922,2097.0
37.923,1965.0
37.924,1945.0
37.925,1976.0
37.926,2064.0
37.927,2170.0
37.928,2224.0
37.929,2201.0
37.93,2075.0
37.931,1961.0
37.932,1955.0
37.933,1977.0
37.934,2079.0
37.935,2182.0
37.936,2195.0
37.937,2165.0
37.938,2031.0
37.939,1940.0
37.94,1953.0
37.941,1977.0
37.942,2079.0
37.943,2145.0
37.944,2141.0
37.945,2117.0
37.946,1994.0
37.947,1923.0
37.948,1954.0
37.949,1995.0
37.95,2102.0
37.951,2192.0
37.952,2177.0
37.953,2120.0
37.954,1971.0
37.955,1919.0
37.956,1941.0
37.957,2010.0
37.958,2136.0
37.959,2192.0
37.96,2168.0
37.961,2078.0
37.962,1945.0
37.963,1917.0
37.964,1950.0
37.965,2043.0
37.966,2161.0
37.967,2186.0
37.968,2142.0
37.969,2040.0
37.97,1922.0
37.971,1916.0
37.972,1962.0
37.973,2063.0
37.974,2170.0
37.975,2169.0
37.976,2096.0
37.977,1975.0
37.978,1876.0
37.979,1877.0
37.98,1934.0
37.981,2030.0
37.982,2131.0
37.983,2115.0
37.984,2058.0
37.985,1929.0
37.986,1867.0
37.987,1890.0
37.988,1932.0
37.989,2042.0
37.99,2111.0
37.991,2086.0
37.992,2002.0
37.993,1888.0
37.994,1859.0
37.995,1890.0
37.996,1962.0
37.997,2086.0
37.998,2149.0
37.999,2098.0
38.0,1985.0
38.001,1876.0
38.002,1859.0
38.003,1906.0
38.004,1984.0
38.005,2115.0
38.006,2136.0
38.007,2085.0
38.008,1955.0
38.009,1875.0
38.01,1879.0
38.011,1904.0
38.012,1996.0
38.013,2117.0
38.014,2123.0
38.015,2061.0
38.016,1929.0
38.017,1855.0
38.018,1873.0
38.019,1927.0
38.02,2039.0
38.021,2158.0
38.022,2128.0
38.023,2048.0
38.024,1892.0
38.025,1850.0
38.026,1880.0
38.027,1941.0
38.028,2069.0
38.029,2172.0
38.03,2134.0
38.031,2041.0
38.032,1896.0
38.033,1863.0
38.034,1898.0
38.035,1966.0
38.036,2089.0
38.037,2167.0
38.038,2132.0
38.039,2018.0
38.04,1878.0
38.041,1879.0
38.042,1907.0
38.043,1993.0
38.044,2120.0
38.045,2163.0
38.046,2116.0
38.047,1973.0
38.048,1849.0
38.049,1869.0
38.05,1917.0
38.051,2021.0
38.052,2156.0
38.053,2167.0
38.054,2111.0
38.055,1961.0
38.056,1845.0
38.057,1872.0
38.058,1918.0
38.059,2032.0
38.06,2159.0
38.061,2153.0
38.062,2086.0
38.063,1930.0
38.064,1836.0
38.065,1878.0
38.066,1944.0
38.067,2079.0
38.068,2184.0
38.069,2165.0
38.07,2069.0
38.071,1917.0
38.072,1851.0
38.073,1911.0
38.074,1994.0
38.075,2127.0
38.076,2204.0
38.077,2151.0
38.078,2032.0
38.079,1887.0
38.08,1839.0
38.081,1912.0
38.082,2012.0
38.083,2150.0
38.084,2189.0
38.085,2151.0
38.086,2028.0
38.087,1894.0
38.088,1863.0
38.089,1930.0
38.09,2034.0
38.091,2158.0
38.092,2179.0
38.093,2129.0
38.094,1995.0
38.095,1887.0
38.096,1875.0
38.097,1954.0
38.098,2068.0
38.099,2182.0
38.1,2178.0
38.101,2114.0
38.102,1966.0
38.103,1882.0
38.104,1896.0
38.105,1976.0
38.106,2100.0
38.107,2201.0
38.108,2175.0
38.109,2101.0
38.11,1944.0
38.111,1879.0
38.112,1899.0
38.113,1991.0
38.114,2122.0
38.115,2200.0
38.116,2170.0
38.117,2059.0
38.118,1906.0
38.119,1860.0
38.12,1868.0
38.121,2001.0
38.122,2144.0
38.123,2199.0
38.124,2152.0
38.125,2040.0
38.126,1912.0
38.127,1888.0
38.128,1900.0
38.129,2034.0
38.13,2160.0
38.131,2171.0
38.132,2132.0
38.133,1999.0
38.134,1897.0
38.135,1910.0
38.136,1927.0
38.137,2064.0
38.138,2192.0
38.139,2190.0
38.14,2132.0
38.141,1989.0
38.142,1898.0
38.143,1918.0
38.144,1925.0
38.145,2082.0
38.146,2197.0
38.147,2189.0
38.148,2119.0
38.149,1967.0
38.15,1901.0
38.151,1935.0
38.152,1981.0
38.153,2139.0
38.154,2222.0
38.155,2188.0
38.156,2086.0
38.157,1937.0
38.158,1905.0
38.159,1953.0
38.16,2007.0
38.161,2181.0
38.162,2241.0
38.163,2206.0
38.164,2087.0
38.165,1945.0
38.166,1921.0
38.167,1949.0
38.168,2008.0
38.169,2195.0
38.17,2216.0
38.171,2151.0
38.172,2024.0
38.173,1897.0
38.174,1907.0
38.175,1947.0
38.176,2036.0
38.177,2188.0
38.178,2187.0
38.179,2131.0
38.18,1986.0
38.181,1893.0
38.182,1900.0
38.183,1943.0
38.184,2040.0
38.185,2180.0
38.186,2172.0
38.187,2108.0
38.188,1956.0
38.189,1896.0
38.19,1926.0
38.191,1964.0
38.192,2057.0
38.193,2178.0
38.194,2180.0
38.195,2101.0
38.196,1968.0
38.197,1922.0
38.198,1930.0
38.199,1961.0
38.2,1957.0
38.201,1962.0
38.202,1897.0
38.203,1845.0
38.204,1890.0
38.205,2046.0
38.206,2227.0
38.207,2352.0
38.208,2489.0
38.209,2589.0
38.21,2586.0
38.211,2471.0
38.212,2387.0
38.213,2350.0
38.214,2301.0
38.215,2331.0
38.216,2369.0
38.217,2360.0
38.218,2261.0
38.219,2065.0
38.22,1962.0
38.221,1928.0
38.222,1923.0
38.223,1957.0
38.224,1984.0
38.225,1974.0
38.226,1897.0
38.227,1748.0
38.228,1686.0
38.229,1706.0
38.23,1768.0
38.231,1880.0
38.232,1943.0
38.233,1950.0
38.234,1877.0
38.235,1725.0
38.236,1699.0
38.237,1686.0
38.238,1796.0
38.239,1930.0
38.24,1948.0
38.241,1969.0
38.242,1868.0
38.243,1750.0
38.244,1739.0
38.245,1782.0
38.246,1878.0
38.247,1994.0
38.248,2033.0
38.249,1980.0
38.25,1871.0
38.251,1735.0
38.252,1800.0
38.253,1858.0
38.254,1942.0
38.255,2049.0
38.256,2024.0
38.257,1953.0
38.258,1836.0
38.259,1785.0
38.26,1808.0
38.261,1860.0
38.262,1969.0
38.263,2081.0
38.264,2059.0
38.265,1980.0
38.266,1853.0
38.267,1762.0
38.268,1814.0
38.269,1874.0
38.27,1986.0
38.271,2068.0
38.272,2016.0
38.273,1941.0
38.274,1833.0
38.275,1804.0
38.276,1844.0
38.277,1919.0
38.278,2024.0
38.279,2084.0
38.28,2027.0
38.281,1934.0
38.282,1810.0
38.283,1805.0
38.284,1856.0
38.285,1929.0
38.286,2056.0
38.287,2110.0
38.288,2027.0
38.289,1923.0
38.29,1835.0
38.291,1847.0
38.292,1884.0
38.293,1995.0
38.294,2114.0
38.295,2133.0
38.296,2044.0
38.297,1934.0
38.298,1868.0
38.299,1886.0
38.3,1959.0
38.301,2097.0
38.302,2213.0
38.303,2191.0
38.304,2091.0
38.305,1982.0
38.306,1947.0
38.307,1987.0
38.308,2060.0
38.309,2186.0
38.31,2283.0
38.311,2248.0
38.312,2148.0
38.313,2038.0
38.314,2021.0
38.315,2061.0
38.316,2139.0
38.317,2260.0
38.318,2309.0
38.319,2265.0
38.32,2119.0
38.321,2022.0
38.322,2036.0
38.323,2087.0
38.324,2178.0
38.325,2301.0
38.326,2324.0
38.327,2278.0
38.328,2118.0
38.329,2037.0
38.33,2063.0
38.331,2104.0
38.332,2198.0
38.333,2302.0
38.334,2299.0
38.335,2231.0
38.336,2074.0
38.337,2010.0
38.338,2044.0
38.339,2090.0
38.34,2200.0
38.341,2302.0
38.342,2275.0
38.343,2209.0
38.344,2048.0
38.345,1983.0
38.346,2031.0
38.347,2102.0
38.348,2218.0
38.349,2303.0
38.35,2251.0
38.351,2153.0
38.352,2011.0
38.353,1968.0
38.354,2017.0
38.355,2091.0
38.356,2207.0
38.357,2272.0
38.358,2232.0
38.359,2105.0
38.36,1977.0
38.361,1974.0
38.362,2039.0
38.363,2137.0
38.364,2258.0
38.365,2281.0
38.366,2220.0
38.367,2092.0
38.368,1967.0
38.369,1978.0
38.37,2045.0
38.371,2154.0
38.372,2258.0
38.373,2267.0
38.374,2209.0
38.375,2050.0
38.376,1951.0
38.377,1956.0
38.378,2017.0
38.379,2132.0
38.38,2242.0
38.381,2231.0
38.382,2152.0
38.383,1995.0
38.384,1911.0
38.385,1946.0
38.386,2020.0
38.387,2146.0
38.388,2225.0
38.389,2190.0
38.39,2102.0
38.391,1965.0
38.392,1898.0
38.393,1927.0
38.394,2017.0
38.395,2144.0
38.396,2214.0
38.397,2176.0
38.398,2056.0
38.399,1908.0
38.4,1884.0
38.401,1918.0
38.402,2029.0
38.403,2170.0
38.404,2200.0
38.405,2153.0
38.406,2011.0
38.407,1896.0
38.408,1879.0
38.409,1926.0
38.41,2044.0
38.411,2174.0
38.412,2185.0
38.413,2139.0
38.414,1994.0
38.415,1895.0
38.416,1897.0
38.417,1938.0
38.418,2099.0
38.419,2206.0
38.42,2201.0
38.421,2138.0
38.422,1972.0
38.423,1895.0
38.424,1904.0
38.425,1968.0
38.426,2106.0
38.427,2223.0
38.428,2209.0
38.429,2126.0
38.43,1970.0
38.431,1916.0
38.432,1927.0
38.433,1993.0
38.434,2148.0
38.435,2219.0
38.436,2181.0
38.437,2074.0
38.438,1925.0
38.439,1891.0
38.44,1910.0
38.441,2000.0
38.442,2154.0
38.443,2196.0
38.444,2157.0
38.445,2030.0
38.446,1916.0
38.447,1919.0
38.448,1942.0
38.449,2036.0
38.45,2191.0
38.451,2206.0
38.452,2140.0
38.453,1999.0
38.454,1896.0
38.455,1910.0
38.456,1944.0
38.457,2050.0
38.458,2188.0
38.459,2185.0
38.46,2130.0
38.461,1986.0
38.462,1900.0
38.463,1915.0
38.464,1946.0
38.465,2053.0
38.466,2162.0
38.467,2147.0
38.468,2046.0
38.469,1889.0
38.47,1827.0
38.471,1853.0
38.472,1919.0
38.473,2022.0
38.474,2126.0
38.475,2088.0
38.476,1980.0
38.477,1836.0
38.478,1803.0
38.479,1841.0
38.48,1915.0
38.481,2062.0
38.482,2122.0
38.483,2077.0
38.484,1946.0
38.485,1823.0
38.486,1819.0
38.487,1858.0
38.488,1938.0
38.489,2058.0
38.49,2087.0
38.491,2039.0
38.492,1898.0
38.493,1797.0
38.494,1817.0
38.495,1856.0
38.496,1942.0
38.497,2041.0
38.498,2071.0
38.499,2027.0
38.5,1880.0
38.501,1807.0
38.502,1826.0
38.503,1891.0
38.504,1991.0
38.505,2067.0
38.506,2059.0
38.507,1994.0
38.508,1841.0
38.509,1791.0
38.51,1820.0
38.511,1891.0
38.512,2001.0
38.513,2059.0
38.514,2064.0
38.515,1967.0
38.516,1828.0
38.517,1801.0
38.518,1825.0
38.519,1912.0
38.52,2014.0
38.521,2044.0
38.522,2021.0
38.523,1914.0
38.524,1789.0
38.525,1807.0
38.526,1838.0
38.527,1931.0
38.528,2039.0
38.529,2047.0
38.53,2019.0
38.531,1877.0
38.532,1786.0
38.533,1805.0
38.534,1858.0
38.535,1959.0
38.536,2052.0
38.537,2029.0
38.538,2004.0
38.539,1858.0
38.54,1794.0
38.541,1820.0
38.542,1881.0
38.543,1992.0
38.544,2074.0
38.545,2040.0
38.546,1987.0
38.547,1846.0
38.548,1797.0
38.549,1834.0
38.55,1927.0
38.551,2055.0
38.552,2106.0
38.553,2051.0
38.554,1972.0
38.555,1853.0
38.556,1842.0
38.557,1889.0
38.558,1970.0
38.559,2095.0
38.56,2117.0
38.561,2066.0
38.562,1977.0
38.563,1875.0
38.564,1881.0
38.565,1921.0
38.566,2019.0
38.567,2129.0
38.568,2127.0
38.569,2061.0
38.57,1971.0
38.571,1886.0
38.572,1901.0
38.573,1949.0
38.574,2062.0
38.575,2169.0
38.576,2157.0
38.577,2084.0
38.578,1971.0
38.579,1906.0
38.58,1930.0
38.581,2000.0
38.582,2120.0
38.583,2212.0
38.584,2183.0
38.585,2072.0
38.586,1976.0
38.587,1940.0
38.588,1980.0
38.589,2049.0
38.59,2162.0
38.591,2234.0
38.592,2209.0
38.593,2086.0
38.594,1979.0
38.595,1965.0
38.596,1993.0
38.597,2079.0
38.598,2215.0
38.599,2260.0
38.6,2201.0
38.601,2054.0
38.602,1965.0
38.603,1981.0
38.604,2026.0
38.605,2126.0
38.606,2240.0
38.607,2245.0
38.608,2181.0
38.609,2023.0
38.61,1956.0
38.611,1993.0
38.612,2048.0
38.613,2158.0
38.614,2268.0
38.615,2249.0
38.616,2171.0
38.617,1989.0
38.618,1943.0
38.619,1971.0
38.62,2022.0
38.621,2129.0
38.622,2224.0
38.623,2194.0
38.624,2102.0
38.625,1949.0
38.626,1944.0
38.627,1980.0
38.628,2045.0
38.629,2167.0
38.63,2244.0
38.631,2225.0
38.632,2122.0
38.633,1946.0
38.634,1941.0
38.635,1984.0
38.636,2063.0
38.637,2201.0
38.638,2247.0
38.639,2215.0
38.64,2071.0
38.641,1950.0
38.642,1950.0
38.643,1951.0
38.644,1973.0
38.645,2020.0
38.646,1967.0
38.647,1935.0
38.648,1914.0
38.649,1960.0
38.65,2171.0
38.651,2291.0
38.652,2447.0
38.653,2590.0
38.654,2633.0
38.655,2590.0
38.656,2483.0
38.657,2356.0
38.658,2338.0
38.659,2308.0
38.66,2367.0
38.661,2434.0
38.662,2355.0
38.663,2222.0
38.664,2016.0
38.665,1900.0
38.666,1903.0
38.667,1919.0
38.668,1991.0
38.669,2054.0
38.67,1999.0
38.671,1882.0
38.672,1734.0
38.673,1675.0
38.674,1734.0
38.675,1829.0
38.676,1961.0
38.677,2012.0
38.678,1966.0
38.679,1848.0
38.68,1717.0
38.681,1700.0
38.682,1759.0
38.683,1863.0
38.684,1994.0
38.685,2026.0
38.686,1971.0
38.687,1829.0
38.688,1736.0
38.689,1723.0
38.69,1798.0
38.691,1926.0
38.692,2056.0
38.693,2050.0
38.694,1989.0
38.695,1835.0
38.696,1761.0
38.697,1763.0
38.698,1842.0
38.699,1984.0
38.7,2072.0
38.701,2056.0
38.702,1991.0
38.703,1832.0
38.704,1778.0
38.705,1796.0
38.706,1873.0
38.707,2009.0
38.708,2089.0
38.709,2043.0
38.71,1946.0
38.711,1803.0
38.712,1769.0
38.713,1774.0
38.714,1893.0
38.715,2034.0
38.716,2068.0
38.717,2038.0
38.718,1916.0
38.719,1774.0
38.72,1757.0
38.721,1779.0
38.722,1895.0
38.723,2040.0
38.724,2060.0
38.725,2020.0
38.726,1888.0
38.727,1768.0
38.728,1786.0
38.729,1801.0
38.73,1926.0
38.731,2055.0
38.732,2058.0
38.733,1985.0
38.734,1838.0
38.735,1742.0
38.736,1785.0
38.737,1833.0
38.738,1977.0
38.739,2114.0
38.74,2090.0
38.741,2009.0
38.742,1888.0
38.743,1840.0
38.744,1855.0
38.745,1910.0
38.746,2056.0
38.747,2152.0
38.748,2142.0
38.749,2063.0
38.75,1934.0
38.751,1904.0
38.752,1951.0
38.753,2017.0
38.754,2139.0
38.755,2225.0
38.756,2170.0
38.757,2095.0
38.758,1967.0
38.759,1958.0
38.76,2011.0
38.761,2091.0
38.762,2219.0
38.763,2273.0
38.764,2233.0
38.765,2095.0
38.766,1982.0
38.767,2001.0
38.768,2085.0
38.769,2119.0
38.77,2242.0
38.771,2267.0
38.772,2214.0
38.773,2100.0
38.774,1993.0
38.775,2023.0
38.776,2063.0
38.777,2151.0
38.778,2254.0
38.779,2252.0
38.78,2183.0
38.781,2037.0
38.782,1981.0
38.783,1994.0
38.784,2031.0
38.785,2139.0
38.786,2214.0
38.787,2211.0
38.788,2124.0
38.789,1991.0
38.79,1954.0
38.791,1981.0
38.792,2059.0
38.793,2157.0
38.794,2209.0
38.795,2202.0
38.796,2092.0
38.797,1974.0
38.798,1951.0
38.799,1971.0
38.8,2062.0
38.801,2157.0
38.802,2182.0
38.803,2160.0
38.804,2028.0
38.805,1919.0
38.806,1938.0
38.807,1982.0
38.808,2092.0
38.809,2178.0
38.81,2182.0
38.811,2140.0
38.812,1992.0
38.813,1922.0
38.814,1946.0
38.815,2016.0
38.816,2128.0
38.817,2221.0
38.818,2191.0
38.819,2141.0
38.82,2002.0
38.821,1936.0
38.822,1973.0
38.823,2038.0
38.824,2154.0
38.825,2219.0
38.826,2183.0
38.827,2117.0
38.828,1982.0
38.829,1941.0
38.83,1985.0
38.831,2057.0
38.832,2172.0
38.833,2217.0
38.834,2177.0
38.835,2086.0
38.836,1968.0
38.837,1962.0
38.838,1997.0
38.839,2082.0
38.84,2195.0
38.841,2209.0
38.842,2160.0
38.843,2055.0
38.844,1947.0
38.845,1953.0
38.846,1996.0
38.847,2098.0
38.848,2196.0
38.849,2191.0
38.85,2127.0
38.851,2008.0
38.852,1931.0
38.853,1941.0
38.854,2000.0
38.855,2109.0
38.856,2195.0
38.857,2175.0
38.858,2116.0
38.859,2021.0
38.86,1964.0
38.861,1987.0
38.862,2043.0
38.863,2152.0
38.864,2211.0
38.865,2161.0
38.866,2064.0
38.867,1957.0
38.868,1931.0
38.869,1970.0
38.87,2044.0
38.871,2162.0
38.872,2200.0
38.873,2162.0
38.874,2034.0
38.875,1942.0
38.876,1943.0
38.877,1972.0
38.878,2059.0
38.879,2176.0
38.88,2192.0
38.881,2126.0
38.882,1997.0
38.883,1930.0
38.884,1944.0
38.885,1990.0
38.886,2103.0
38.887,2227.0
38.888,2203.0
38.889,2133.0
38.89,1979.0
38.891,1921.0
38.892,1953.0
38.893,2003.0
38.894,2116.0
38.895,2225.0
38.896,2207.0
38.897,2094.0
38.898,1971.0
38.899,1932.0
38.9,1962.0
38.901,2024.0
38.902,2126.0
38.903,2221.0
38.904,2178.0
38.905,2068.0
38.906,1915.0
38.907,1900.0
38.908,1933.0
38.909,2011.0
38.91,2132.0
38.911,2187.0
38.912,2152.0
38.913,2023.0
38.914,1883.0
38.915,1887.0
38.916,1930.0
38.917,2020.0
38.918,2146.0
38.919,2168.0
38.92,2118.0
38.921,1975.0
38.922,1867.0
38.923,1907.0
38.924,1956.0
38.925,2054.0
38.926,2177.0
38.927,2172.0
38.928,2111.0
38.929,1938.0
38.93,1839.0
38.931,1899.0
38.932,1961.0
38.933,2076.0
38.934,2202.0
38.935,2163.0
38.936,2090.0
38.937,1933.0
38.938,1848.0
38.939,1900.0
38.94,1977.0
38.941,2087.0
38.942,2176.0
38.943,2131.0
38.944,2040.0
38.945,1891.0
38.946,1828.0
38.947,1896.0
38.948,1973.0
38.949,2096.0
38.95,2160.0
38.951,2120.0
38.952,2004.0
38.953,1873.0
38.954,1849.0
38.955,1900.0
38.956,2000.0
38.957,2139.0
38.958,2165.0
38.959,2115.0
38.96,1977.0
38.961,1851.0
38.962,1829.0
38.963,1898.0
38.964,2011.0
38.965,2142.0
38.966,2151.0
38.967,2090.0
38.968,1932.0
38.969,1840.0
38.97,1844.0
38.971,1922.0
38.972,2049.0
38.973,2174.0
38.974,2145.0
38.975,2074.0
38.976,1922.0
38.977,1850.0
38.978,1855.0
38.979,1950.0
38.98,2080.0
38.981,2180.0
38.982,2133.0
38.983,2053.0
38.984,1905.0
38.985,1847.0
38.986,1860.0
38.987,1973.0
38.988,2098.0
38.989,2168.0
38.99,2137.0
38.991,2019.0
38.992,1871.0
38.993,1838.0
38.994,1863.0
38.995,1972.0
38.996,2113.0
38.997,2165.0
38.998,2124.0
38.999,1990.0
39.0,1869.0
39.001,1863.0
39.002,1887.0
39.003,2016.0
39.004,2139.0
39.005,2138.0
39.006,2097.0
39.007,1955.0
39.008,1864.0
39.009,1871.0
39.01,1908.0
39.011,2046.0
39.012,2164.0
39.013,2140.0
39.014,2069.0
39.015,1907.0
39.016,1833.0
39.017,1853.0
39.018,1891.0
39.019,2045.0
39.02,2158.0
39.021,2113.0
39.022,2012.0
39.023,1857.0
39.024,1798.0
39.025,1828.0
39.026,1886.0
39.027,2051.0
39.028,2112.0
39.029,2078.0
39.03,1979.0
39.031,1849.0
39.032,1829.0
39.033,1861.0
39.034,1934.0
39.035,2091.0
39.036,2128.0
39.037,2066.0
39.038,1964.0
39.039,1846.0
39.04,1844.0
39.041,1876.0
39.042,1941.0
39.043,2095.0
39.044,2127.0
39.045,2077.0
39.046,1927.0
39.047,1830.0
39.048,1852.0
39.049,1900.0
39.05,2000.0
39.051,2136.0
39.052,2121.0
39.053,2063.0
39.054,1913.0
39.055,1844.0
39.056,1870.0
39.057,1934.0
39.058,2039.0
39.059,2167.0
39.06,2142.0
39.061,2054.0
39.062,1923.0
39.063,1877.0
39.064,1927.0
39.065,2004.0
39.066,2093.0
39.067,2174.0
39.068,2086.0
39.069,1880.0
39.07,1673.0
39.071,1597.0
39.072,1679.0
39.073,1927.0
39.074,2210.0
39.075,2415.0
39.076,2430.0
39.077,2368.0
39.078,2288.0
39.079,2325.0
39.08,2401.0
39.081,2527.0
39.082,2593.0
39.083,2545.0
39.084,2424.0
39.085,2234.0
39.086,2095.0
39.087,2057.0
39.088,2053.0
39.089,2121.0
39.09,2175.0
39.091,2139.0
39.092,2020.0
39.093,1833.0
39.094,1730.0
39.095,1737.0
39.096,1774.0
39.097,1891.0
39.098,1966.0
39.099,1959.0
39.1,1884.0
39.101,1736.0
39.102,1694.0
39.103,1731.0
39.104,1812.0
39.105,1935.0
39.106,1984.0
39.107,1979.0
39.108,1895.0
39.109,1772.0
39.11,1752.0
39.111,1786.0
39.112,1859.0
39.113,1991.0
39.114,2005.0
39.115,1984.0
39.116,1878.0
39.117,1757.0
39.118,1763.0
39.119,1809.0
39.12,1907.0
39.121,2041.0
39.122,2019.0
39.123,1974.0
39.124,1855.0
39.125,1745.0
39.126,1765.0
39.127,1814.0
39.128,1925.0
39.129,2040.0
39.13,1996.0
39.131,1950.0
39.132,1818.0
39.133,1741.0
39.134,1768.0
39.135,1831.0
39.136,1947.0
39.137,2031.0
39.138,1969.0
39.139,1902.0
39.14,1766.0
39.141,1708.0
39.142,1760.0
39.143,1822.0
39.144,1946.0
39.145,1999.0
39.146,1928.0
39.147,1864.0
39.148,1741.0
39.149,1708.0
39.15,1743.0
39.151,1834.0
39.152,1956.0
39.153,1997.0
39.154,1925.0
39.155,1831.0
39.156,1722.0
39.157,1731.0
39.158,1769.0
39.159,1872.0
39.16,2011.0
39.161,2014.0
39.162,1922.0
39.163,1803.0
39.164,1733.0
39.165,1752.0
39.166,1808.0
39.167,1936.0
39.168,2056.0
39.169,2035.0
39.17,1960.0
39.171,1829.0
39.172,1787.0
39.173,1826.0
39.174,1901.0
39.175,2051.0
39.176,2132.0
39.177,2103.0
39.178,2010.0
39.179,1866.0
39.18,1835.0
39.181,1878.0
39.182,1960.0
39.183,2095.0
39.184,2148.0
39.185,2103.0
39.186,1969.0
39.187,1858.0
39.188,1846.0
39.189,1886.0
39.19,1977.0
39.191,2122.0
39.192,2128.0
39.193,2082.0
39.194,1956.0
39.195,1845.0
39.196,1853.0
39.197,1901.0
39.198,2012.0
39.199,2151.0
39.2,2135.0
39.201,2089.0
39.202,1942.0
39.203,1838.0
39.204,1880.0
39.205,1936.0
39.206,2054.0
39.207,2167.0
39.208,2138.0
39.209,2065.0
39.21,1906.0
39.211,1842.0
39.212,1895.0
39.213,1959.0
39.214,2082.0
39.215,2175.0
39.216,2125.0
39.217,2041.0
39.218,1904.0
39.219,1878.0
39.22,1928.0
39.221,2002.0
39.222,2143.0
39.223,2194.0
39.224,2150.0
39.225,2059.0
39.226,1906.0
39.227,1869.0
39.228,1926.0
39.229,2024.0
39.23,2154.0
39.231,2189.0
39.232,2129.0
39.233,2017.0
39.234,1880.0
39.235,1876.0
39.236,1933.0
39.237,2037.0
39.238,2173.0
39.239,2172.0
39.24,2113.0
39.241,1976.0
39.242,1849.0
39.243,1866.0
39.244,1935.0
39.245,2059.0
39.246,2185.0
39.247,2153.0
39.248,2092.0
39.249,1953.0
39.25,1845.0
39.251,1882.0
39.252,1963.0
39.253,2082.0
39.254,2168.0
39.255,2130.0
39.256,2054.0
39.257,1891.0
39.258,1862.0
39.259,1904.0
39.26,1967.0
39.261,2114.0
39.262,2175.0
39.263,2158.0
39.264,2028.0
39.265,1886.0
39.266,1836.0
39.267,1872.0
39.268,1997.0
39.269,2134.0
39.27,2167.0
39.271,2137.0
39.272,2006.0
39.273,1869.0
39.274,1856.0
39.275,1897.0
39.276,2026.0
39.277,2128.0
39.278,2177.0
39.279,2118.0
39.28,1989.0
39.281,1873.0
39.282,1871.0
39.283,1916.0
39.284,2061.0
39.285,2189.0
39.286,2164.0
39.287,2108.0
39.288,1954.0
39.289,1863.0
39.29,1871.0
39.291,1931.0
39.292,2080.0
39.293,2199.0
39.294,2164.0
39.295,2088.0
39.296,1925.0
39.297,1874.0
39.298,1860.0
39.299,1928.0
39.3,2093.0
39.301,2194.0
39.302,2151.0
39.303,2051.0
39.304,1891.0
39.305,1849.0
39.306,1869.0
39.307,1946.0
39.308,2109.0
39.309,2158.0
39.31,2118.0
39.311,2029.0
39.312,1906.0
39.313,1885.0
39.314,1907.0
39.315,1992.0
39.316,2168.0
39.317,2164.0
39.318,2111.0
39.319,1986.0
39.32,1858.0
39.321,1863.0
39.322,1895.0
39.323,1998.0
39.324,2141.0
39.325,2136.0
39.326,2076.0
39.327,1939.0
39.328,1842.0
39.329,1855.0
39.33,1900.0
39.331,2008.0
39.332,2162.0
39.333,2130.0
39.334,2058.0
39.335,1901.0
39.336,1820.0
39.337,1853.0
39.338,1913.0
39.339,2031.0
39.34,2152.0
39.341,2144.0
39.342,2068.0
39.343,1926.0
39.344,1874.0
39.345,1909.0
39.346,1986.0
39.347,2095.0
39.348,2170.0
39.349,2136.0
39.35,2025.0
39.351,1885.0
39.352,1873.0
39.353,1909.0
39.354,1991.0
39.355,2113.0
39.356,2176.0
39.357,2136.0
39.358,2008.0
39.359,1891.0
39.36,1887.0
39.361,1929.0
39.362,2027.0
39.363,2133.0
39.364,2155.0
39.365,2118.0
39.366,1973.0
39.367,1883.0
39.368,1898.0
39.369,1952.0
39.37,2050.0
39.371,2157.0
39.372,2160.0
39.373,2088.0
39.374,1927.0
39.375,1868.0
39.376,1892.0
39.377,1953.0
39.378,2069.0
39.379,2133.0
39.38,2117.0
39.381,2031.0
39.382,1885.0
39.383,1845.0
39.384,1884.0
39.385,1972.0
39.386,2094.0
39.387,2118.0
39.388,2110.0
39.389,2006.0
39.39,1872.0
39.391,1860.0
39.392,1902.0
39.393,2004.0
39.394,2127.0
39.395,2123.0
39.396,2119.0
39.397,1993.0
39.398,1882.0
39.399,1896.0
39.4,1943.0
39.401,2062.0
39.402,2177.0
39.403,2152.0
39.404,2125.0
39.405,1987.0
39.406,1880.0
39.407,1904.0
39.408,1954.0
39.409,2082.0
39.41,2184.0
39.411,2142.0
39.412,2105.0
39.413,1959.0
39.414,1902.0
39.415,1939.0
39.416,2003.0
39.417,2129.0
39.418,2200.0
39.419,2152.0
39.42,2088.0
39.421,1950.0
39.422,1914.0
39.423,1943.0
39.424,2020.0
39.425,2151.0
39.426,2181.0
39.427,2135.0
39.428,2046.0
39.429,1922.0
39.43,1905.0
39.431,1957.0
39.432,2065.0
39.433,2206.0
39.434,2227.0
39.435,2159.0
39.436,2058.0
39.437,1950.0
39.438,1952.0
39.439,2003.0
39.44,2111.0
39.441,2229.0
39.442,2213.0
39.443,2131.0
39.444,2017.0
39.445,1949.0
39.446,1981.0
39.447,2041.0
39.448,2165.0
39.449,2264.0
39.45,2230.0
39.451,2133.0
39.452,2020.0
39.453,1965.0
39.454,1995.0
39.455,2059.0
39.456,2178.0
39.457,2251.0
39.458,2204.0
39.459,2081.0
39.46,1973.0
39.461,1946.0
39.462,1980.0
39.463,2067.0
39.464,2197.0
39.465,2242.0
39.466,2199.0
39.467,2057.0
39.468,1960.0
39.469,1956.0
39.47,1997.0
39.471,2101.0
39.472,2231.0
39.473,2232.0
39.474,2173.0
39.475,2019.0
39.476,1957.0
39.477,1990.0
39.478,2043.0
39.479,2164.0
39.48,2269.0
39.481,2196.0
39.482,2068.0
39.483,1798.0
39.484,1673.0
39.485,1691.0
39.486,1873.0
39.487,2208.0
39.488,2445.0
39.489,2498.0
39.49,2473.0
39.491,2359.0
39.492,2375.0
39.493,2446.0
39.494,2557.0
39.495,2683.0
39.496,2713.0
39.497,2592.0
39.498,2413.0
39.499,2212.0
39.5,2167.0
39.501,2168.0
39.502,2201.0
39.503,2304.0
39.504,2298.0
39.505,2198.0
39.506,2029.0
39.507,1838.0
39.508,1819.0
39.509,1860.0
39.51,1950.0
39.511,2083.0
39.512,2098.0
39.513,2046.0
39.514,1909.0
39.515,1763.0
39.516,1806.0
39.517,1863.0
39.518,1971.0
39.519,2099.0
39.52,2092.0
39.521,2028.0
39.522,1871.0
39.523,1762.0
39.524,1810.0
39.525,1872.0
39.526,1999.0
39.527,2114.0
39.528,2073.0
39.529,1952.0
39.53,1820.0
39.531,1761.0
39.532,1834.0
39.533,1920.0
39.534,2039.0
39.535,2133.0
39.536,2096.0
39.537,2000.0
39.538,1854.0
39.539,1793.0
39.54,1857.0
39.541,1956.0
39.542,2093.0
39.543,2153.0
39.544,2110.0
39.545,1998.0
39.546,1875.0
39.547,1837.0
39.548,1901.0
39.549,2012.0
39.55,2137.0
39.551,2146.0
39.552,2095.0
39.553,1984.0
39.554,1873.0
39.555,1860.0
39.556,1919.0
39.557,2045.0
39.558,2153.0
39.559,2147.0
39.56,2080.0
39.561,1935.0
39.562,1824.0
39.563,1830.0
39.564,1906.0
39.565,2045.0
39.566,2157.0
39.567,2135.0
39.568,2061.0
39.569,1915.0
39.57,1840.0
39.571,1843.0
39.572,1920.0
39.573,2078.0
39.574,2160.0
39.575,2132.0
39.576,2066.0
39.577,1922.0
39.578,1864.0
39.579,1889.0
39.58,1998.0
39.581,2172.0
39.582,2229.0
39.583,2191.0
39.584,2112.0
39.585,1971.0
39.586,1958.0
39.587,1988.0
39.588,2104.0
39.589,2259.0
39.59,2277.0
39.591,2233.0
39.592,2123.0
39.593,1997.0
39.594,2001.0
39.595,2030.0
39.596,2156.0
39.597,2313.0
39.598,2295.0
39.599,2242.0
39.6,2112.0
39.601,2013.0
39.602,2040.0
39.603,2078.0
39.604,2227.0
39.605,2349.0
39.606,2317.0
39.607,2248.0
39.608,2101.0
39.609,2024.0
39.61,2047.0
39.611,2089.0
39.612,2229.0
39.613,2331.0
39.614,2280.0
39.615,2200.0
39.616,2046.0
39.617,1989.0
39.618,2028.0
39.619,2086.0
39.62,2222.0
39.621,2282.0
39.622,2232.0
39.623,2133.0
39.624,1984.0
39.625,1948.0
39.626,1988.0
39.627,2061.0
39.628,2199.0
39.629,2237.0
39.63,2177.0
39.631,2063.0
39.632,1942.0
39.633,1930.0
39.634,1977.0
39.635,2066.0
39.636,2190.0
39.637,2205.0
39.638,2156.0
39.639,2016.0
39.64,1916.0
39.641,1940.0
39.642,2006.0
39.643,2124.0
39.644,2227.0
39.645,2208.0
39.646,2145.0
39.647,2017.0
39.648,1925.0
39.649,1940.0
39.65,2021.0
39.651,2184.0
39.652,2229.0
39.653,2190.0
39.654,2117.0
39.655,2006.0
39.656,1927.0
39.657,1958.0
39.658,2048.0
39.659,2149.0
39.66,2152.0
39.661,2115.0
39.662,2030.0
39.663,1923.0
39.664,1894.0
39.665,1909.0
39.666,2010.0
39.667,2069.0
39.668,2051.0
39.669,2007.0
39.67,1901.0
39.671,1802.0
39.672,1819.0
39.673,1833.0
39.674,1906.0
39.675,1951.0
39.676,1917.0
39.677,1868.0
39.678,1751.0
39.679,1661.0
39.68,1667.0
39.681,1684.0
39.682,1766.0
39.683,1796.0
39.684,1772.0
39.685,1709.0
39.686,1576.0
39.687,1487.0
39.688,1497.0
39.689,1528.0
39.69,1607.0
39.691,1661.0
39.692,1592.0
39.693,1510.0
39.694,1370.0
39.695,1278.0
39.696,1283.0
39.697,1337.0
39.698,1431.0
39.699,1391.0
39.7,1315.0
39.701,1211.0
39.702,1094.0
39.703,1042.0
39.704,1049.0
39.705,1110.0
39.706,1139.0
39.707,1079.0
39.708,989.0
39.709,857.0
39.71,737.0
39.711,707.0
39.712,715.0
39.713,765.0
39.714,786.0
39.715,732.0
39.716,641.0
39.717,508.0
39.718,407.0
39.719,383.0
39.72,402.0
39.721,462.0
39.722,477.0
39.723,419.0
39.724,316.0
39.725,176.0
39.726,91.0
39.727,88.0
39.728,111.0
39.729,158.0
39.73,143.0
39.731,66.0
39.732,39.0
39.733,24.0
39.734,24.0
39.735,25.0
39.736,28.0
39.737,31.0
39.738,53.0
39.739,23.0
39.74,15.0
39.741,7.0
39.742,12.0
39.743,11.0
39.744,15.0
39.745,12.0
39.746,7.0
39.747,8.0
39.748,10.0
39.749,0.0
39.75,2.0
39.751,0.0
39.752,5.0
39.753,5.0
39.754,5.0
39.755,6.0
39.756,2.0
39.757,2.0
39.758,0.0
39.759,1.0
39.76,1.0
39.761,24.0
39.762,13.0
39.763,24.0
39.764,1.0
39.765,5.0
39.766,1.0
39.767,1.0
39.768,0.0
39.769,0.0
39.77,2.0
39.771,7.0
39.772,0.0
39.773,0.0
39.774,1.0
39.775,0.0
39.776,9.0
39.777,1.0
39.778,10.0
39.779,0.0
39.78,11.0
39.781,0.0
39.782,0.0
39.783,1.0
39.784,1.0
39.785,0.0
39.786,1.0
39.787,3.0
39.788,0.0
39.789,2.0
39.79,2.0
39.791,1.0
39.792,1.0
39.793,0.0
39.794,1.0
39.795,0.0
39.796,0.0
39.797,1.0
39.798,1.0
39.799,0.0
39.8,0.0
39.801,2.0
39.802,1.0
39.803,0.0
39.804,1.0
39.805,1.0
39.806,2.0
39.807,3.0
39.808,2.0
39.809,0.0
39.81,0.0
39.811,0.0
39.812,0.0
39.813,1.0
39.814,2.0
39.815,3.0
39.816,0.0
39.817,1.0
39.818,2.0
39.819,2.0
39.82,2.0
39.821,2.0
39.822,0.0
39.823,2.0
39.824,0.0
39.825,3.0
39.826,3.0
39.827,2.0
39.828,1.0
39.829,2.0
39.83,2.0
39.831,1.0
39.832,3.0
39.833,1.0
39.834,1.0
39.835,0.0
39.836,1.0
39.837,4.0
39.838,3.0
39.839,2.0
39.84,2.0
39.841,2.0
39.842,2.0
39.843,5.0
39.844,2.0
39.845,5.0
39.846,8.0
39.847,6.0
39.848,14.0
39.849,8.0
39.85,7.0
39.851,6.0
39.852,12.0
39.853,15.0
39.854,23.0
39.855,29.0
39.856,31.0
39.857,24.0
39.858,32.0
39.859,36.0
39.86,45.0
39.861,72.0
39.862,219.0
39.863,287.0
39.864,334.0
39.865,345.0
39.866,311.0
39.867,354.0
39.868,424.0
39.869,588.0
39.87,713.0
39.871,749.0
39.872,764.0
39.873,750.0
39.874,762.0
39.875,820.0
39.876,864.0
39.877,1037.0
39.878,1131.0
39.879,1167.0
39.88,1161.0
39.881,1123.0
39.882,1123.0
39.883,1187.0
39.884,1215.0
39.885,1380.0
39.886,1457.0
39.887,1480.0
39.888,1483.0
39.889,1450.0
39.89,1425.0
39.891,1427.0
39.892,1420.0
39.893,1461.0
39.894,1473.0
39.895,1479.0
39.896,1589.0
39.897,1730.0
39.898,1906.0
39.899,2022.0
39.9,2111.0
39.901,2311.0
39.902,2414.0
39.903,2422.0
39.904,2426.0
39.905,2343.0
39.906,2294.0
39.907,2246.0
39.908,2250.0
39.909,2319.0
39.91,2299.0
39.911,2230.0
39.912,2147.0
39.913,2064.0
39.914,2050.0
39.915,2060.0
39.916,2065.0
39.917,2136.0
39.918,2126.0
39.919,2094.0
39.92,2013.0
39.921,1983.0
39.922,2011.0
39.923,2078.0
39.924,2138.0
39.925,2230.0
39.926,2236.0
39.927,2214.0
39.928,2164.0
39.929,2137.0
39.93,2158.0
39.931,2239.0
39.932,2295.0
39.933,2351.0
39.934,2339.0
39.935,2304.0
39.936,2246.0
39.937,2227.0
39.938,2258.0
39.939,2342.0
39.94,2360.0
39.941,2446.0
39.942,2435.0
39.943,2394.0
39.944,2329.0
39.945,2313.0
39.946,2348.0
39.947,2462.0
39.948,2511.0
39.949,2551.0
39.95,2533.0
39.951,2472.0
39.952,2406.0
39.953,2402.0
39.954,2444.0
39.955,2570.0
39.956,2620.0
39.957,2626.0
39.958,2606.0
39.959,2522.0
39.96,2433.0
39.961,2442.0
39.962,2514.0
39.963,2657.0
39.964,2722.0
39.965,2734.0
39.966,2706.0
39.967,2614.0
39.968,2547.0
39.969,2576.0
39.97,2637.0
39.971,2761.0
39.972,2771.0
39.973,2749.0
39.974,2712.0
39.975,2601.0
39.976,2576.0
39.977,2619.0
39.978,2711.0
39.979,2855.0
39.98,2857.0
39.981,2858.0
39.982,2816.0
39.983,2707.0
39.984,2706.0
39.985,2753.0
39.986,2854.0
39.987,2969.0
39.988,2950.0
39.989,2952.0
39.99,2889.0
39.991,2807.0
39.992,2835.0
39.993,2896.0
39.994,3009.0
39.995,3119.0
39.996,3104.0
39.997,3085.0
39.998,2999.0
39.999,2942.0
40.0,2971.0
40.001,3040.0
40.002,3149.0
40.003,3232.0
40.004,3196.0
40.005,3160.0
40.006,3067.0
40.007,3031.0
40.008,3086.0
40.009,3174.0
40.01,3295.0
40.011,3343.0
40.012,3284.0
40.013,3214.0
40.014,3137.0
40.015,3122.0
40.016,3169.0
40.017,3254.0
40.018,3360.0
40.019,3378.0
40.02,3309.0
40.021,3234.0
40.022,3160.0
40.023,3152.0
40.024,3200.0
40.025,3289.0
40.026,3381.0
40.027,3374.0
40.028,3311.0
40.029,3214.0
40.03,3151.0
40.031,3163.0
40.032,3214.0
40.033,3309.0
40.034,3383.0
40.035,3366.0
40.036,3287.0
40.037,3184.0
40.038,3120.0
40.039,3140.0
40.04,3189.0
40.041,3295.0
40.042,3380.0
40.043,3362.0
40.044,3309.0
40.045,3231.0
40.046,3193.0
40.047,3203.0
40.048,3264.0
40.049,3355.0
40.05,3389.0
40.051,3366.0
40.052,3279.0
40.053,3177.0
40.054,3164.0
40.055,3204.0
40.056,3285.0
40.057,3387.0
40.058,3402.0
40.059,3346.0
40.06,3261.0
40.061,3163.0
40.062,3188.0
40.063,3235.0
40.064,3316.0
40.065,3401.0
40.066,3388.0
40.067,3333.0
40.068,3227.0
40.069,3142.0
40.07,3166.0
40.071,3219.0
40.072,3311.0
40.073,3396.0
40.074,3393.0
40.075,3338.0
40.076,3231.0
40.077,3172.0
40.078,3210.0
40.079,3279.0
40.08,3372.0
40.081,3411.0
40.082,3369.0
40.083,3302.0
40.084,3193.0
40.085,3146.0
40.086,3192.0
40.087,3268.0
40.088,3367.0
40.089,3394.0
40.09,3354.0
40.091,3276.0
40.092,3173.0
40.093,3138.0
40.094,3193.0
40.095,3294.0
40.096,3385.0
40.097,3398.0
40.098,3354.0
40.099,3270.0
40.1,3152.0
40.101,3127.0
40.102,3199.0
40.103,3301.0
40.104,3392.0
40.105,3403.0
40.106,3364.0
40.107,3246.0
40.108,3153.0
40.109,3145.0
40.11,3207.0
40.111,3302.0
40.112,3371.0
40.113,3347.0
40.114,3296.0
40.115,3185.0
40.116,3099.0
40.117,3101.0
40.118,3174.0
40.119,3277.0
40.12,3321.0
40.121,3280.0
40.122,3221.0
40.123,3122.0
40.124,3055.0
40.125,3075.0
40.126,3148.0
40.127,3246.0
40.128,3271.0
40.129,3222.0
40.13,3145.0
40.131,3032.0
40.132,2958.0
40.133,2971.0
40.134,3085.0
40.135,3185.0
40.136,3206.0
40.137,3172.0
40.138,3088.0
40.139,2974.0
40.14,2921.0
40.141,2934.0
40.142,3046.0
40.143,3125.0
40.144,3108.0
40.145,3056.0
40.146,2963.0
40.147,2865.0
40.148,2832.0
40.149,2873.0
40.15,3016.0
40.151,3083.0
40.152,3054.0
40.153,3001.0
40.154,2895.0
40.155,2811.0
40.156,2806.0
40.157,2849.0
40.158,3013.0
40.159,3071.0
40.16,3042.0
40.161,2983.0
40.162,2884.0
40.163,2791.0
40.164,2809.0
40.165,2871.0
40.166,3049.0
40.167,3082.0
40.168,3041.0
40.169,2978.0
40.17,2873.0
40.171,2804.0
40.172,2833.0
40.173,2911.0
40.174,3082.0
40.175,3103.0
40.176,3070.0
40.177,3010.0
40.178,2904.0
40.179,2879.0
40.18,2909.0
40.181,2997.0
40.182,3151.0
40.183,3135.0
40.184,3072.0
40.185,2986.0
40.186,2875.0
40.187,2856.0
40.188,2901.0
40.189,3015.0
40.19,3134.0
40.191,3113.0
40.192,3056.0
40.193,2960.0
40.194,2854.0
40.195,2850.0
40.196,2897.0
40.197,3013.0
40.198,3103.0
40.199,3058.0
40.2,3011.0
40.201,2897.0
40.202,2806.0
40.203,2818.0
40.204,2879.0
40.205,3013.0
40.206,3074.0
40.207,3029.0
40.208,2963.0
40.209,2849.0
40.21,2779.0
40.211,2805.0
40.212,2873.0
40.213,2998.0
40.214,3048.0
40.215,3001.0
40.216,2920.0
40.217,2785.0
40.218,2756.0
40.219,2787.0
40.22,2882.0
40.221,2991.0
40.222,3039.0
40.223,3017.0
40.224,2898.0
40.225,2780.0
40.226,2783.0
40.227,2843.0
40.228,2940.0
40.229,3045.0
40.23,3092.0
40.231,3049.0
40.232,2953.0
40.233,2904.0
40.234,2937.0
40.235,3006.0
40.236,3136.0
40.237,3221.0
40.238,3224.0
40.239,3179.0
40.24,3075.0
40.241,3050.0
40.242,3091.0
40.243,3177.0
40.244,3288.0
40.245,3327.0
40.246,3330.0
40.247,3243.0
40.248,3106.0
40.249,3071.0
40.25,3115.0
40.251,3191.0
40.252,3297.0
40.253,3329.0
40.254,3318.0
40.255,3194.0
40.256,3095.0
40.257,3063.0
40.258,3092.0
40.259,3181.0
40.26,3303.0
40.261,3314.0
40.262,3276.0
40.263,3180.0
40.264,3058.0
40.265,3032.0
40.266,3058.0
40.267,3144.0
40.268,3193.0
40.269,3139.0
40.27,3083.0
40.271,2987.0
40.272,2883.0
40.273,2873.0
40.274,2895.0
40.275,2956.0
40.276,2951.0
40.277,2893.0
40.278,2806.0
40.279,2730.0
40.28,2651.0
40.281,2646.0
40.282,2653.0
40.283,2699.0
40.284,2706.0
40.285,2655.0
40.286,2590.0
40.287,2486.0
40.288,2421.0
40.289,2402.0
40.29,2371.0
40.291,2316.0
40.292,2227.0
40.293,2107.0
40.294,2083.0
40.295,2129.0
40.296,2257.0
40.297,2398.0
40.298,2480.0
40.299,2584.0
40.3,2615.0
40.301,2572.0
40.302,2488.0
40.303,2396.0
40.304,2330.0
40.305,2256.0
40.306,2230.0
40.307,2224.0
40.308,2142.0
40.309,2000.0
40.31,1846.0
40.311,1727.0
40.312,1677.0
40.313,1667.0
40.314,1678.0
40.315,1689.0
40.316,1621.0
40.317,1506.0
40.318,1393.0
40.319,1329.0
40.32,1350.0
40.321,1394.0
40.322,1469.0
40.323,1502.0
40.324,1456.0
40.325,1363.0
40.326,1285.0
40.327,1261.0
40.328,1290.0
40.329,1343.0
40.33,1418.0
40.331,1439.0
40.332,1405.0
40.333,1316.0
40.334,1257.0
40.335,1251.0
40.336,1293.0
40.337,1361.0
40.338,1447.0
40.339,1444.0
40.34,1401.0
40.341,1309.0
40.342,1248.0
40.343,1264.0
40.344,1301.0
40.345,1389.0
40.346,1470.0
40.347,1449.0
40.348,1421.0
40.349,1332.0
40.35,1306.0
40.351,1329.0
40.352,1369.0
40.353,1457.0
40.354,1524.0
40.355,1500.0
40.356,1451.0
40.357,1349.0
40.358,1323.0
40.359,1359.0
40.36,1426.0
40.361,1525.0
40.362,1550.0
40.363,1510.0
40.364,1463.0
40.365,1369.0
40.366,1334.0
40.367,1375.0
40.368,1462.0
40.369,1542.0
40.37,1564.0
40.371,1539.0
40.372,1484.0
40.373,1385.0
40.374,1370.0
40.375,1430.0
40.376,1530.0
40.377,1622.0
40.378,1625.0
40.379,1590.0
40.38,1536.0
40.381,1437.0
40.382,1453.0
40.383,1527.0
40.384,1656.0
40.385,1750.0
40.386,1754.0
40.387,1730.0
40.388,1664.0
40.389,1546.0
40.39,1603.0
40.391,1687.0
40.392,1847.0
40.393,1923.0
40.394,1907.0
40.395,1880.0
40.396,1791.0
40.397,1704.0
40.398,1763.0
40.399,1858.0
40.4,1997.0
40.401,2057.0
40.402,2027.0
40.403,1978.0
40.404,1877.0
40.405,1807.0
40.406,1862.0
40.407,1967.0
40.408,2102.0
40.409,2120.0
40.41,2091.0
40.411,2035.0
40.412,1924.0
40.413,1890.0
40.414,1925.0
40.415,2055.0
40.416,2176.0
40.417,2179.0
40.418,2146.0
40.419,2071.0
40.42,1960.0
40.421,1935.0
40.422,1978.0
40.423,2113.0
40.424,2221.0
40.425,2197.0
40.426,2164.0
40.427,2087.0
40.428,2000.0
40.429,1990.0
40.43,2045.0
40.431,2199.0
40.432,2273.0
40.433,2244.0
40.434,2206.0
40.435,2106.0
40.436,2038.0
40.437,2057.0
40.438,2115.0
40.439,2267.0
40.44,2330.0
40.441,2298.0
40.442,2242.0
40.443,2131.0
40.444,2069.0
40.445,2089.0
40.446,2168.0
40.447,2317.0
40.448,2339.0
40.449,2295.0
40.45,2228.0
40.451,2117.0
40.452,2081.0
40.453,2111.0
40.454,2209.0
40.455,2352.0
40.456,2352.0
40.457,2312.0
40.458,2231.0
40.459,2126.0
40.46,2112.0
40.461,2143.0
40.462,2249.0
40.463,2366.0
40.464,2345.0
40.465,2282.0
40.466,2195.0
40.467,2090.0
40.468,2083.0
